0,1,2,3,4,5,6,7,8,9,10,11,12,13,14,15,16,17,18,19,20,21,22,23,24,25,26,27,28,29,30,31,32,33,34,35,36,37,38,39,40,41,42,43,44,45,46,47,48,49,50,51,52,53,54,55,56,57,58,59,60,61,62,63,64,65,66,67,68,69,70,71,72,73,74,75,76,77,78,79,80,81,82,83,84,85,86,87,88,89,90,91,92,93,94,95,96,97,98,99,100,101,102,103,104,105,106,107,108,109,110,111,112,113,114,115,116,117,118,119,120,121,122,123,124,125,126,127,128,129,130,131,132,133,134,135,136,137,138,139,140,141,142,143,144,145,146,147,148,149,150,151,152,153,154,155,156,157,158,159,160,161,162,163,164,165,166,167,168,169,170,171,172,173,174,175,176,177,178,179,180,181,182,183,184,185,186,187,188,189,190,191,192,193,194,195,196,197,198,199,200,201,202,203,204,205,206,207,208,209,210,211,212,213,214,215,216,217,218,219,220,221,222,223,224,225,226,227,228,229,230,231,232,233,234,235,236,237,238,239,240,241,242,243,244,245,246,247,248,249,250,251,252,253,254
0.8683854703198497,0.8534518516851826,0.8206623989091928,0.7888542242046568,0.7654394705637371,0.7341287665326712,0.7010855513684504,0.652829027802674,0.6507166128587447,0.6639469064960211,0.6952220086451768,0.7243398617715799,0.7453867272302803,0.7678483099810913,0.7890834954136476,0.8198087403287513,0.8359213003388648,0.8547936944977375,0.8735337083691923,0.8767675774785322,0.8767691989691917,0.876768557129139,0.8750430558537334,0.8541045099028635,0.832835719083183,0.8052760654573978,0.791238117338922,0.8130912284677185,0.8205100027204177,0.8244499992957595,0.8489722548345737,0.8674610539445093,0.8767281458352225,0.8718406081665888,0.8318414654499846,0.760227207503271,0.7012184307669305,0.6279302117849852,0.5595478853190476,0.4986633058651959,0.46641505611925016,0.4465943800623182,0.37640490692061945,0.3001596762872234,0.22490977045942318,0.16578667648186585,0.1288872244516237,0.16542289937488786,0.22232414382240506,0.2973606009343981,0.37361419918257255,0.44969369398429127,0.5135535446523773,0.5807804959208349,0.656999373539803,0.7332529717879774,0.8095065700361519,0.8857570969128359,0.9582194241161761,0.9694954867130416,0.9459064543579578,0.9270833672924894,0.914346599153975,0.8989783148620027,0.8965582818803699,0.8789191886639083,0.8642238042315893,0.8446075328166769,0.8090166048341567,0.7797293414349173,0.7499456342263984,0.7265399558763526,0.7045435288525028,0.7105666213406119,0.7347986996502107,0.753601568715478,0.7557737833059752,0.7754424159763635,0.8099919467206185,0.8148147977013909,0.8427564485766279,0.8628824242884763,0.8765140521325083,0.8767691989691917,0.8767691989691917,0.8767671974416591,0.8725695298707534,0.8432583748036615,0.822707771346332,0.7937156905457061,0.7971511264766411,0.8201957441723802,0.8128458395337335,0.8318139260379613,0.854192378279039,0.8551395834063245,0.8533245697796019,0.8182514046881759,0.756193364647213,0.6810830079910262,0.6212038639051589,0.5493687847333746,0.47894151371056504,0.4317219639613148,0.41433964138144264,0.3616479996931372,0.2977150486494331,0.221616981135627,0.14749195544568838,0.10510746035262519,0.12781786835667752,0.19940959425507243,0.25821320510139145,0.3326466829920518,0.4088995127212165,0.48515311096939007,0.5613691626036377,0.6302624988805752,0.6925673562917649,0.7685382853266218,0.8447918835747954,0.9210331715338858,0.9849975794211963,0.9622743229300514,0.9330672525070165,0.918263077596559,0.9003896002392748,0.8855343179169441,0.8768152319960127,0.8700364770414533,0.8510289772766075,0.8317478930813884,0.8018192389897538,0.7689715713795087,0.7378523881562202,0.7176457803867682,0.6930404803758732,0.6926600153599991,0.7118974563463234,0.74171295864741,0.7548557998486478,0.7736899164685558,0.7927883068589279,0.8124244962780098,0.8313257529444757,0.8453063809790335,0.8637763099020255,0.8765664757070528,0.8767691229618166,0.8754759487493939,0.8582541557504837,0.844765756028476,0.8257318568897638,0.7909138771531494,0.770702123561966,0.7942127847226184,0.8116267299763376,0.8200609285701121,0.851324036585404,0.8739381017216776,0.8766001688688174,0.8585878376710903,0.8053183117129215,0.7318158583327574,0.6704588623570027,0.6005783342032887,0.5255240276267346,0.46677152100074704,0.4156780131611253,0.41370788658550994,0.37158192854646543,0.31301431072600616,0.23984783225044382,0.16359909884706392,0.08886359084885109,0.030792441187892816,0.0,0.043540651927065355,0.10100871638520292,0.17437237892594926,0.2506245245887433,0.3268781228369173,0.4030140015783057,0.4678570289003132,0.5340643256100233,0.6102632971941486,0.6865168954423226,0.7627704936904962,0.839024062380247,0.9147248474425074,0.9679678787001826,0.9541780179051438,0.9253605941250478,0.9001029404559509,0.8954734931659383,0.8782956995517281,0.875971813356013,0.8593980911945183,0.8397403591170556,0.8144218921494462,0.7838476378342096,0.7548788120462548,0.7276009190766266,0.7067830225413139,0.6827002172276213,0.6856066245370878,0.7147229413153089,0.7352899627927663,0.7650489952041282,0.7844405420709677,0.8029888232878553,0.81623762601515,0.8456736817550174,0.8595411065057021,0.8759328066107064,0.8767691989691917,0.8767691989691917,0.8767562377653202,0.8708483547410406,0.8408682272498322,0.8215103305603324,0.8138218265853383,0.8311533970461222,0.8355620906154777,0.8624477096790315,0.8939755803989367,0.8983962640623768,0.8971009610573013,0.8701955048927728,0.8031950996797801,0.7341867000100315,0.6719730784419884,0.5967609371783809,0.5367482058667581,0.4831683712942034,0.4604857151683759,0.41806335942772144,0.34460286453723166,0.26836625994656504,0.19786304613297556,0.1418254282014657,0.13217739825135055,0.18676092488600204,0.2529679932248299,0.32916827539831983,0.40542187364649385,0.4816751847556966,0.5569343064801293,0.6163902241951642,0.6888089650786191,0.7650606462518992,0.8413142445000727,0.9175674732679533,0.9912849647189002,1.0
0,1,2,3,4,5,6,7,8,9,10,11,12,13,14,15,16,17,18,19,20,21,22,23,24,25,26,27,28,29,30,31,32,33,34,35,36,37,38,39,40,41,42,43,44,45,46,47,48,49,50,51,52,53,54,55,56,57,58,59,60,61,62,63,64,65,66,67,68,69,70,71,72,73,74,75,76,77,78,79,80,81,82,83,84,85,86,87,88,89,90,91,92,93,94,95,96,97,98,99,100,101,102,103,104,105,106,107,108,109,110,111,112,113,114,115,116,117,118,119,120,121,122,123,124,125,126,127,128,129,130,131,132,133,134,135,136,137,138,139,140,141,142,143,144,145,146,147,148,149,150,151,152,153,154,155,156,157,158,159,160,161,162,163,164,165,166,167,168,169,170,171,172,173,174,175,176,177,178,179,180,181,182,183,184,185,186,187,188,189,190,191,192,193,194,195,196,197,198,199,200,201,202,203,204,205,206,207,208,209,210,211,212,213,214,215,216,217,218,219,220,221,222,223,224,225,226,227,228,229,230,231,232,233,234,235,236,237,238,239,240,241,242,243,244,245,246,247,248,249,250,251,252,253,254
0.4746013674991052,0.474038974476769,0.4769605971622197,0.4644761411158035,0.4707716632840663,0.4781807890232984,0.46874064607368215,0.46533246844175713,0.4782136011287539,0.5001569495608154,0.5143153899234076,0.48231281044182694,0.44316144745170927,0.4005272796557514,0.3569355664454785,0.3161484873710273,0.2754709267430997,0.2318855327408368,0.18918065289891373,0.14996284971192642,0.10858500303375251,0.09572561085018849,0.1297668028054635,0.17060876279969173,0.21113488968028205,0.254708350650217,0.2983658761463376,0.34202340164245815,0.38567874911058353,0.4285277716276743,0.46770860959310134,0.5106728869901513,0.554328939385549,0.5979864648816696,0.6416439903777905,0.685301515873911,0.7288972601263694,0.7618934178813083,0.7406115360773081,0.7009653818321769,0.6575881335158523,0.617309313200714,0.5767261945932428,0.5377751400792051,0.4994258959368143,0.4637539519907121,0.4345844767461917,0.4125799937345398,0.39601939731223235,0.38234053077808194,0.3688499712787475,0.3564564333882946,0.34111098408466534,0.3310968605950768,0.3443678989928094,0.3713832223700013,0.40161168812041437,0.43317383739168924,0.45556937416893994,0.4717160069008971,0.4717529971894471,0.4826809005008451,0.5181584281056935,0.5575550622554301,0.5970632057201076,0.6215417740385062,0.5930143622703982,0.5495198084200977,0.5058622829239774,0.4622047574278566,0.4186498996110014,0.3783336674871852,0.3371738349810742,0.2937591263097995,0.25419777048944636,0.22656370851388552,0.2457211814994773,0.2876040516662245,0.3310606783069918,0.37091292371905615,0.4126062952431552,0.4562461268657849,0.49990365236190604,0.5434862388216187,0.5824200028900511,0.6191973431150543,0.662102199924084,0.7013852771653194,0.7439072317108896,0.7875600616222128,0.8312175871183339,0.8748751126144542,0.9185326381105748,0.9621706227915318,0.9999999999999999,0.9887335080471061,0.9464760929525416,0.9040255828439451,0.8647052603348445,0.8218483955111463,0.785546634667449,0.7527845321396293,0.7140821452020975,0.6740293466189912,0.6451817519036954,0.6204949037903856,0.5880297721048701,0.555516273349621,0.5192504208732868,0.48263805995368636,0.44744464666833417,0.41466766395319765,0.3878672108716964,0.3841330478743359,0.4081299709144006,0.41213528378429465,0.40318953724722884,0.41468592949891614,0.4402823875459917,0.4697701086002204,0.49745483159189774,0.5190909370302265,0.5444953497270241,0.5719747032571202,0.60097176249696,0.6077068351256886,0.5887150406692595,0.5802020785000476,0.561154352639844,0.5473179625387808,0.5564873905901858,0.5601083307824976,0.567892574350554,0.5655167606346464,0.5572595527548202,0.5619977661571914,0.5428320966334733,0.5169185723366491,0.49162934795079416,0.45468045177520133,0.41336129941324984,0.3710065871770363,0.3316459150228164,0.2883969948960623,0.24549138957693306,0.20630963337617958,0.16340342847460654,0.11975384528633959,0.07741914870711353,0.03806678685913134,0.0,3.09672690631535e-05,0.03850011684433752,0.08211919692912084,0.1257767224252413,0.16943424792136175,0.2130917734174821,0.2567492989136039,0.300406817187684,0.34396063918439823,0.38433137261949846,0.4254378562907033,0.4690548366566947,0.5127123621528151,0.5563688004631046,0.5993870114113385,0.6371431263163209,0.6451728085511405,0.6086257001268299,0.5672034517352534,0.5274251694022741,0.4877670350171778,0.44746879357691205,0.4093007279292281,0.3769067213447401,0.35077725654623626,0.33963284402310956,0.3266961256333595,0.3153424074114647,0.3368472535153153,0.3684531225353749,0.3989286522750357,0.43898319669761443,0.48132904689680667,0.5205179332989088,0.560101379620105,0.5981733126703491,0.633667376283099,0.6624496825125931,0.6750827387450996,0.6757216450718372,0.6630977692307795,0.6561934948474334,0.6413716529793422,0.6289819244868348,0.612788095369193,0.5935138347275771,0.5773010396657684,0.5556330143388261,0.5377694281482591,0.5248283413550022,0.5019785649785387,0.46418904118487214,0.42366186223355473,0.38296325061634795,0.3395014228783515,0.29933025804215196,0.2580077192411394,0.214382028066751,0.17079374612481024,0.130088214610941,0.08954067286159262,0.06122769495415048,0.08272274686031911,0.12507541431846836,0.16855940206042208,0.2085058583123841,0.25008561456276235,0.29372095940897425,0.33737848490509603,0.3810360104012164,0.42468345241815897,0.4667544293797806,0.5063156865630126,0.5496841845540698,0.5933415481443073,0.6369990736404277,0.6806480384508368,0.7228529536790856,0.7623065131478838,0.8004054934683843,0.7890279657535192,0.7506086609076509,0.7082249135185402,0.6669312307904648,0.6267626502956024,0.5853166476869535,0.5460565491817738,0.5099671652345162,0.4761089946910627,0.4480227818889403,0.4318978345470055,0.4113961851066307,0.3893625156934565,0.37139438959402693,0.3665883131580733,0.3755443196071583,0.3934750794913955,0.4281838041518259,0.4649304068903357,0.49664986332517147,0.5254549742582174,0.5455618739701208,0.558974196416573,0.5664626304672155
0,1,2,3,4,5,6,7,8,9,10,11,12,13,14,15,16,17,18,19,20,21,22,23,24,25,26,27,28,29,30,31,32,33,34,35,36,37,38,39,40,41,42,43,44,45,46,47,48,49,50,51,52,53,54,55,56,57,58,59,60,61,62,63,64,65,66,67,68,69,70,71,72,73,74,75,76,77,78,79,80,81,82,83,84,85,86,87,88,89,90,91,92,93,94,95,96,97,98,99,100,101,102,103,104,105,106,107,108,109,110,111,112,113,114,115,116,117,118,119,120,121,122,123,124,125,126,127,128,129,130,131,132,133,134,135,136,137,138,139,140,141,142,143,144,145,146,147,148,149,150,151,152,153,154,155,156,157,158,159,160,161,162,163,164,165,166,167,168,169,170,171,172,173,174,175,176,177,178,179,180,181,182,183,184,185,186,187,188,189,190,191,192,193,194,195,196,197,198,199,200,201,202,203,204,205,206,207,208,209,210,211,212,213,214,215,216,217,218,219,220,221,222,223,224,225,226,227,228,229,230,231,232,233,234,235,236,237,238,239,240,241,242,243,244,245,246,247,248,249,250,251,252,253,254
0.7793289479214942,0.7055927257905252,0.6231282687051665,0.5411436615231273,0.4767224052804324,0.40131921302671225,0.3188561087274535,0.23638418949942208,0.15391227027139198,0.07144940795577481,0.0,0.024852268997597182,0.09278382098300453,0.1599306363826738,0.22355507794140328,0.28931285759981806,0.3712612118968317,0.4379896567878192,0.4624228602434024,0.4630061746132301,0.4630061746132301,0.46254492627079236,0.4448726141291446,0.4373999962667301,0.43739065767882357,0.43699674057056237,0.4202508410857413,0.4014222689074587,0.39551781409267894,0.41565151632046016,0.4359641642229799,0.43431616799268147,0.41327393757040154,0.4117751407444179,0.4117751407444179,0.4117751407444179,0.4117751407444179,0.4117744861704993,0.40993952334882033,0.38715742454378654,0.3622513336830884,0.34130549461687787,0.334936008445609,0.3345668895313225,0.3239733271192109,0.32431243620714545,0.30929788216749055,0.2955606701177911,0.28377624100942755,0.2836975560723851,0.2840385431547543,0.3047715187570508,0.3491570575946521,0.3994202776446918,0.44228433911987564,0.4966563452196868,0.5486518070345796,0.6035389447840589,0.670074494940335,0.723342001488207,0.771894581539708,0.8191121477607024,0.8646175254012438,0.9043022390789006,0.9234079577543786,0.908816750215522,0.859226060292007,0.8125783175013361,0.7617217716968026,0.726220457126558,0.6649961583774657,0.618131917128022,0.5900610212662829,0.5555628476955401,0.5265803738089256,0.49891345048202185,0.47175121500347617,0.46301314884823386,0.45809646336355536,0.43840710577010134,0.43695141370984336,0.41655048119466587,0.37570062565885776,0.3331532603741443,0.281194900833436,0.24908246983107896,0.2886316576457779,0.36099243638686707,0.4394183942485772,0.5018143766900738,0.5827367774294658,0.6574328115229142,0.7225161817420616,0.8044320392044555,0.8720248364360015,0.8878538153478321,0.8554208120551512,0.7821402770628265,0.7326464564759632,0.683837055388596,0.6097576764283272,0.5272960994682117,0.4448241802401811,0.36235226101215057,0.2798803417841209,0.19847571228071148,0.13562334568000978,0.062010373203496005,0.06954286842637059,0.12898033897864591,0.19112766201663733,0.254292720891383,0.32234825376419396,0.38980320722178474,0.45049837067805454,0.46659157503892024,0.4865071874629492,0.4730776903160723,0.4853965153682611,0.4836834028019097,0.4641174383537545,0.4758037038631744,0.4791198072865952,0.4590717811737979,0.43858357481938404,0.4375103323657883,0.4512358197625752,0.47851481712035193,0.49143540206106584,0.5121191486733125,0.5142362593498615,0.5142372084820432,0.5142372084820432,0.5142372084820432,0.5142372084820432,0.5142372084820432,0.5144373445299624,0.5299902097439584,0.5189850951113182,0.5153971228214629,0.5326722035936791,0.5157246750583,0.5023102111102733,0.5077635876002247,0.5115924230091768,0.48078800890703066,0.4516493431431292,0.4372406387815295,0.4222175416151317,0.42541794010384626,0.4203976503231952,0.4354424637684704,0.4606688206880487,0.5057396611127847,0.5473413685345574,0.6071515368839555,0.6624342498214078,0.7173576881564121,0.7801582029636926,0.835961037728691,0.8823380178137197,0.9335792561401353,0.9749901518249442,1.0000000000000004,0.9888464532459138,0.9491178999889542,0.9075451973027167,0.8561976176528616,0.8126253412368514,0.7713466844615771,0.7256544270707201,0.6861336088840164,0.647701281372409,0.6142778139207175,0.5920663810717914,0.576386216932693,0.5628717207918688,0.5416607706603771,0.5398381788875315,0.5337253044692312,0.514567433836532,0.496758072983956,0.4771133492945192,0.4532045149835633,0.4977230014167753,0.5586840613459505,0.6344520540180327,0.6957651847424597,0.7753289145081035,0.8443540541521188,0.8712062591476513,0.8389747429384591,0.7720571785713752,0.7337388536635037,0.66991693157772,0.5876683570273404,0.5052082161894629,0.4285342761191404,0.36505166644223275,0.2833961970496257,0.20092427782159783,0.11845305680574691,0.039223619204568294,0.03720034583124798,0.09781280159798289,0.17704042893578364,0.23863958961466336,0.31405451043561206,0.3766312317327096,0.4407020282468497,0.480166025859432,0.5071453544095141,0.506559834661354,0.5035874154373619,0.5101721669548058,0.4898381378947678,0.4887383299568291,0.5035194781262162,0.5331259927241105,0.5109623278381856,0.4896910803536998,0.4886216915476367,0.4886216915476367,0.4886216915476367,0.4886216915476367,0.4886216915476367,0.4886216915476367,0.4886216915476367,0.4875228787204917,0.4686785937585234,0.4827632230112253,0.48808304419970705,0.4695783247807488,0.45057614844282456,0.4371615005735774,0.42117606984366907,0.40867161452264567,0.38659324250568217,0.3655109551719984,0.3532299429216983,0.3354074793933992,0.33165295308201914,0.326627865781989,0.31375431622818484,0.3093164767911687,0.3095010639436233,0.32822788165226724,0.36890160622765533,0.4112100850538334,0.47695014621914256,0.5309945009801491,0.5751888283710458,0.6379217664536694,0.7005969183926006,0.7546255816704179
0,1,2,3,4,5,6,7,8,9,10,11,12,13,14,15,16,17,18,19,20,21,22,23,24,25,26,27,28,29,30,31,32,33,34,35,36,37,38,39,40,41,42,43,44,45,46,47,48,49,50,51,52,53,54,55,56,57,58,59,60,61,62,63,64,65,66,67,68,69,70,71,72,73,74,75,76,77,78,79,80,81,82,83,84,85,86,87,88,89,90,91,92,93,94,95,96,97,98,99,100,101,102,103,104,105,106,107,108,109,110,111,112,113,114,115,116,117,118,119,120,121,122,123,124,125,126,127,128,129,130,131,132,133,134,135,136,137,138,139,140,141,142,143,144,145,146,147,148,149,150,151,152,153,154,155,156,157,158,159,160,161,162,163,164,165,166,167,168,169,170,171,172,173,174,175,176,177,178,179,180,181,182,183,184,185,186,187,188,189,190,191,192,193,194,195,196,197,198,199,200,201,202,203,204,205,206,207,208,209,210,211,212,213,214,215,216,217,218,219,220,221,222,223,224,225,226,227,228,229,230,231,232,233,234,235,236,237,238,239,240,241,242,243,244,245,246,247,248,249,250,251,252,253,254
0.7793289479214942,0.7055927257905252,0.6231282687051665,0.5411436615231273,0.4767224052804324,0.40131921302671225,0.3188561087274535,0.23638418949942208,0.15391227027139198,0.07144940795577481,0.0,0.024852268997597182,0.09278382098300453,0.1599306363826738,0.22355507794140328,0.28931285759981806,0.3712612118968317,0.4379896567878192,0.4624228602434024,0.4630061746132301,0.4630061746132301,0.46254492627079236,0.4448726141291446,0.4373999962667301,0.43739065767882357,0.43699674057056237,0.4202508410857413,0.4014222689074587,0.39551781409267894,0.41565151632046016,0.4359641642229799,0.43431616799268147,0.41327393757040154,0.4117751407444179,0.4117751407444179,0.4117751407444179,0.4117751407444179,0.4117744861704993,0.40993952334882033,0.38715742454378654,0.3622513336830884,0.34130549461687787,0.334936008445609,0.3345668895313225,0.3239733271192109,0.32431243620714545,0.30929788216749055,0.2955606701177911,0.28377624100942755,0.2836975560723851,0.2840385431547543,0.3047715187570508,0.3491570575946521,0.3994202776446918,0.44228433911987564,0.4966563452196868,0.5486518070345796,0.6035389447840589,0.670074494940335,0.723342001488207,0.771894581539708,0.8191121477607024,0.8646175254012438,0.9043022390789006,0.9234079577543786,0.908816750215522,0.859226060292007,0.8125783175013361,0.7617217716968026,0.726220457126558,0.6649961583774657,0.618131917128022,0.5900610212662829,0.5555628476955401,0.5265803738089256,0.49891345048202185,0.47175121500347617,0.46301314884823386,0.45809646336355536,0.43840710577010134,0.43695141370984336,0.41655048119466587,0.37570062565885776,0.3331532603741443,0.281194900833436,0.24908246983107896,0.2886316576457779,0.36099243638686707,0.4394183942485772,0.5018143766900738,0.5827367774294658,0.6574328115229142,0.7225161817420616,0.8044320392044555,0.8720248364360015,0.8878538153478321,0.8554208120551512,0.7821402770628265,0.7326464564759632,0.683837055388596,0.6097576764283272,0.5272960994682117,0.4448241802401811,0.36235226101215057,0.2798803417841209,0.19847571228071148,0.13562334568000978,0.062010373203496005,0.06954286842637059,0.12898033897864591,0.19112766201663733,0.254292720891383,0.32234825376419396,0.38980320722178474,0.45049837067805454,0.46659157503892024,0.4865071874629492,0.4730776903160723,0.4853965153682611,0.4836834028019097,0.4641174383537545,0.4758037038631744,0.4791198072865952,0.4590717811737979,0.43858357481938404,0.4375103323657883,0.4512358197625752,0.47851481712035193,0.49143540206106584,0.5121191486733125,0.5142362593498615,0.5142372084820432,0.5142372084820432,0.5142372084820432,0.5142372084820432,0.5142372084820432,0.5144373445299624,0.5299902097439584,0.5189850951113182,0.5153971228214629,0.5326722035936791,0.5157246750583,0.5023102111102733,0.5077635876002247,0.5115924230091768,0.48078800890703066,0.4516493431431292,0.4372406387815295,0.4222175416151317,0.42541794010384626,0.4203976503231952,0.4354424637684704,0.4606688206880487,0.5057396611127847,0.5473413685345574,0.6071515368839555,0.6624342498214078,0.7173576881564121,0.7801582029636926,0.835961037728691,0.8823380178137197,0.9335792561401353,0.9749901518249442,1.0000000000000004,0.9888464532459138,0.9491178999889542,0.9075451973027167,0.8561976176528616,0.8126253412368514,0.7713466844615771,0.7256544270707201,0.6861336088840164,0.647701281372409,0.6142778139207175,0.5920663810717914,0.576386216932693,0.5628717207918688,0.5416607706603771,0.5398381788875315,0.5337253044692312,0.514567433836532,0.496758072983956,0.4771133492945192,0.4532045149835633,0.4977230014167753,0.5586840613459505,0.6344520540180327,0.6957651847424597,0.7753289145081035,0.8443540541521188,0.8712062591476513,0.8389747429384591,0.7720571785713752,0.7337388536635037,0.66991693157772,0.5876683570273404,0.5052082161894629,0.4285342761191404,0.36505166644223275,0.2833961970496257,0.20092427782159783,0.11845305680574691,0.039223619204568294,0.03720034583124798,0.09781280159798289,0.17704042893578364,0.23863958961466336,0.31405451043561206,0.3766312317327096,0.4407020282468497,0.480166025859432,0.5071453544095141,0.506559834661354,0.5035874154373619,0.5101721669548058,0.4898381378947678,0.4887383299568291,0.5035194781262162,0.5331259927241105,0.5109623278381856,0.4896910803536998,0.4886216915476367,0.4886216915476367,0.4886216915476367,0.4886216915476367,0.4886216915476367,0.4886216915476367,0.4886216915476367,0.4875228787204917,0.4686785937585234,0.4827632230112253,0.48808304419970705,0.4695783247807488,0.45057614844282456,0.4371615005735774,0.42117606984366907,0.40867161452264567,0.38659324250568217,0.3655109551719984,0.3532299429216983,0.3354074793933992,0.33165295308201914,0.326627865781989,0.31375431622818484,0.3093164767911687,0.3095010639436233,0.32822788165226724,0.36890160622765533,0.4112100850538334,0.47695014621914256,0.5309945009801491,0.5751888283710458,0.6379217664536694,0.7005969183926006,0.7546255816704179
0,1,2,3,4,5,6,7,8,9,10,11,12,13,14,15,16,17,18,19,20,21,22,23,24,25,26,27,28,29,30,31,32,33,34,35,36,37,38,39,40,41,42,43,44,45,46,47,48,49,50,51,52,53,54,55,56,57,58,59,60,61,62,63,64,65,66,67,68,69,70,71,72,73,74,75,76,77,78,79,80,81,82,83,84,85,86,87,88,89,90,91,92,93,94,95,96,97,98,99,100,101,102,103,104,105,106,107,108,109,110,111,112,113,114,115,116,117,118,119,120,121,122,123,124,125,126,127,128,129,130,131,132,133,134,135,136,137,138,139,140,141,142,143,144,145,146,147,148,149,150,151,152,153,154,155,156,157,158,159,160,161,162,163,164,165,166,167,168,169,170,171,172,173,174,175,176,177,178,179,180,181,182,183,184,185,186,187,188,189,190,191,192,193,194,195,196,197,198,199,200,201,202,203,204,205,206,207,208,209,210,211,212,213,214,215,216,217,218,219,220,221,222,223,224,225,226,227,228,229,230,231,232,233,234,235,236,237,238,239,240,241,242,243,244,245,246,247,248,249,250,251,252,253,254
0.4762688362633817,0.472398083382674,0.4662207839606721,0.45823728215436943,0.44961590095572435,0.455315464163048,0.46284793630525733,0.4626094287995405,0.4616459584259922,0.4587034764544007,0.4551181210884365,0.4536579795807203,0.4478220463692042,0.44177100033979266,0.43658305787862217,0.43726588199965366,0.4405624623064832,0.44607448019028906,0.4503614314952946,0.45320233233120666,0.44648511456238915,0.4321255644640105,0.414589432039718,0.3939628086419732,0.3728691160697837,0.3504816078437786,0.32730889765332916,0.3035952828970816,0.2804638234640565,0.25544531484570987,0.23154129794090306,0.20733660773108176,0.18276352936937945,0.1583190158498251,0.13086398410877698,0.10562318502339674,0.08178608226394735,0.05865648321808126,0.035662488893532795,0.014424802042503237,0.0023583395250276196,0.01685128524440821,0.037490351952623624,0.05635984468651978,0.07367949051016437,0.09712719750690679,0.11970723904657121,0.1404742942717403,0.16162973839603123,0.18069898335492296,0.19812519036828835,0.21437811164807397,0.2301112893521181,0.2427863141919927,0.25721584701829747,0.2760297988252042,0.29322204893695725,0.319054642913396,0.34306576300246494,0.3702375960607701,0.3978244317189784,0.42279104176542615,0.44847671116266064,0.476116940128243,0.5037702410913347,0.5300148947136781,0.554492322425481,0.5819970553472817,0.6096593938229249,0.6373212990057926,0.6645534986334256,0.6886098472948821,0.7155409304531606,0.7432018475176068,0.7708642129257908,0.7985194396075257,0.8249008783515981,0.8492619839264115,0.876744377718832,0.9044066666204731,0.932068646209659,0.9591215895850986,0.9718497799168444,0.955451979481913,0.9316383629307243,0.904406206395157,0.876744377718832,0.8492619839264115,0.8249008783515985,0.7985194396075257,0.770864212925791,0.7432018475176072,0.7155394821094228,0.6878960566900854,0.6620655701134837,0.6372310991420436,0.6096593938229251,0.5819970284147407,0.5543398975603965,0.5280079255352826,0.5090477603082523,0.4909102152535296,0.4747327541652956,0.47000353043159415,0.46907043172009144,0.46411731170409953,0.4549891707960355,0.44503832053550374,0.447488582665584,0.4569239621302811,0.4578806365625876,0.454441156288814,0.45399788234340255,0.45069130177206074,0.44824525632843326,0.4442953485648885,0.4402061837426108,0.4362282426802623,0.4331437222130984,0.43272548583695314,0.43648452696769546,0.44100010866846595,0.4444528198818548,0.4431868265376995,0.43474213525607697,0.41959955355015044,0.3996852501040977,0.3788270045884835,0.35689006812079394,0.33458089413812053,0.31144236725181973,0.28688631717993474,0.2627373969054475,0.238882180987966,0.21451081373067915,0.19002032758546827,0.1659347558716966,0.14137781825239726,0.11682144055431642,0.09246739238536517,0.06556939850721583,0.04203503996089197,0.019419500744061235,0.0,0.002920935143977288,0.021995516711853735,0.04395801699399249,0.06457131557175194,0.08605227895438139,0.10827521581525745,0.13112244824286057,0.15169451725937122,0.17055792267668768,0.18900017949909875,0.20708274115727898,0.22219058578715123,0.23730625717026133,0.25041905687636357,0.2695895419634592,0.29354327752255027,0.31747213244212713,0.34442453843472043,0.3695220739206757,0.3950689233173462,0.4226977081880381,0.4495254374757741,0.47361995926015354,0.5009179563312339,0.5285800469368678,0.5562424123450521,0.5838975129462419,0.6099939699213794,0.6283976372900586,0.6526203735285825,0.6802461193472569,0.7079084847554407,0.7355696365281246,0.762604640967302,0.7866174842026585,0.8137893172609634,0.8414509384501221,0.8691080908505007,0.8956263147163019,0.9198948582050799,0.9473311528171648,0.9749164779729229,0.9984138937131541,1.0,0.9784374923712027,0.9511463583412261,0.9237565056364088,0.899545969382429,0.8729255152461339,0.8452664371271139,0.8176040717189301,0.7899424505297714,0.7627706174714655,0.7387577742361089,0.7117227697969317,0.6840616180242483,0.6563993786966089,0.6289630840845228,0.6046945405957445,0.5781763167299432,0.550519164329566,0.5228567989213821,0.49522823499116364,0.47077032288319975,0.4598631995010859,0.4588982749552254,0.4558728869647949,0.446739657809735,0.43741817409394546,0.43710504708097975,0.44708115489606026,0.449416691022268,0.45140728184285805,0.45410826978641283,0.4534450867553932,0.4497893580548964,0.44695021612494235,0.4446760883513201,0.4446821124577889,0.44710844847687736,0.45031803269859627,0.4552861476732264,0.458946461342448,0.46189279157406293,0.45820045146712796,0.4475390162439362,0.4304888817620548,0.41134987248706956,0.3872289465164518,0.3645020913967645,0.342325282483272,0.3182547923227901,0.29441188222983206,0.27211444592530565,0.27467079838846853,0.2804839449989476,0.2621319756989361,0.251130171214881,0.23362363244833861,0.20894208136627224,0.18390469849260593,0.15992833944288376,0.13503360189111713,0.1111942569871941,0.08751137147843735,0.06393188722787141,0.04078048625142472,0.01813540082111531,0.00824910467670864,0.025567220925934997,0.04470316433721666
0,1,2,3,4,5,6,7,8,9,10,11,12,13,14,15,16,17,18,19,20,21,22,23,24,25,26,27,28,29,30,31,32,33,34,35,36,37,38,39,40,41,42,43,44,45,46,47,48,49,50,51,52,53,54,55,56,57,58,59,60,61,62,63,64,65,66,67,68,69,70,71,72,73,74,75,76,77,78,79,80,81,82,83,84,85,86,87,88,89,90,91,92,93,94,95,96,97,98,99,100,101,102,103,104,105,106,107,108,109,110,111,112,113,114,115,116,117,118,119,120,121,122,123,124,125,126,127,128,129,130,131,132,133,134,135,136,137,138,139,140,141,142,143,144,145,146,147,148,149,150,151,152,153,154,155,156,157,158,159,160,161,162,163,164,165,166,167,168,169,170,171,172,173,174,175,176,177,178,179,180,181,182,183,184,185,186,187,188,189,190,191,192,193,194,195,196,197,198,199,200,201,202,203,204,205,206,207,208,209,210,211,212,213,214,215,216,217,218,219,220,221,222,223,224,225,226,227,228,229,230,231,232,233,234,235,236,237,238,239,240,241,242,243,244,245,246,247,248,249,250,251,252,253,254
0.45559373288597727,0.4618567814737006,0.4533963205667443,0.4344146187622101,0.4230439698977978,0.43075701582895654,0.4455279939347033,0.4604226045297187,0.4746340399879999,0.4683804625155169,0.45920521759437893,0.45084307912134414,0.42438755800993155,0.38696514467918186,0.34454631725866103,0.3061920632908611,0.26199619441351063,0.22249871723318793,0.1808930399916887,0.13612451926108926,0.0942466259703435,0.05503058927166504,0.015285709448575435,0.007820931269395648,0.03915947797834418,0.07716743622763877,0.12135835951935026,0.16269978050794676,0.20242828973660776,0.24710824697727374,0.28932987801641785,0.32828874672456865,0.37284927462846296,0.41766638247966126,0.4620706149404731,0.5005693815895685,0.5433994954903493,0.5882114197902609,0.6330285873287916,0.6775347590301516,0.7163733897467183,0.7587681145969914,0.8035735649520587,0.8483907865822343,0.89320800821241,0.9380251832118568,0.9822076693810414,1.0,0.9650287412942201,0.9247631623508415,0.8843979737233231,0.845803944173419,0.803264388913392,0.7622001603803624,0.7222704287777802,0.6817597651940256,0.6445027693562658,0.6156392673837149,0.6032254567452512,0.6074461717065408,0.6222968695745924,0.6172423271771387,0.5967168118961897,0.5687461916147659,0.5454849648699865,0.5266414142725498,0.510699515290859,0.5009179658206645,0.4857445707465001,0.4622160741249487,0.4422474863909066,0.42932999581753106,0.4197186446232849,0.40024949219781913,0.3779241353730568,0.36068770428853203,0.3587109507085743,0.36708654244193484,0.3858911385502287,0.4026067615339758,0.41863341008914234,0.43290762575118913,0.43990900394657484,0.4261029145451919,0.4126853730174248,0.4151692754363502,0.42969070097196604,0.4458185832856304,0.45643460032166316,0.4573095210887147,0.44757307183443407,0.43480060866428005,0.41554462051642516,0.37877501971143557,0.33419013892430327,0.28937300495989715,0.24501338969937636,0.20657626049094524,0.16363865391886356,0.11883176961152209,0.0756258161740434,0.0374023908048855,0.0,0.002833477735668999,0.039661137726299533,0.077756816514568,0.1212253253883041,0.16589648264056944,0.2055302256468473,0.24541740977354898,0.2772173305054647,0.31914124984730463,0.36226975246209114,0.40059734580181916,0.44486495017940897,0.48968017977852984,0.5333255563975251,0.5713777514586474,0.6154102169131931,0.6602259415734947,0.7041776579694256,0.7423001467850207,0.7859561952560837,0.8307718025062495,0.875586145277767,0.9188535890569453,0.9427690624969377,0.9139108237295811,0.8707241626606202,0.8325181715335795,0.7900771411569597,0.7517792875780157,0.7095156279116323,0.6721167078994111,0.635758205899232,0.6062228785625058,0.5957633448633987,0.6092881128652715,0.6264829950447389,0.6396892347117581,0.6303770811069721,0.6065205266306061,0.5799362489817802,0.5594770475524155,0.5428668736720271,0.5352963310857518,0.5219620842559006,0.4998055024803679,0.47440083035089387,0.4509895864301602,0.4362194734503825,0.4263227237228847,0.4042916310921937,0.38325920012748405,0.3647206084909568,0.3507474706129715,0.3530579873932097,0.3679764084949225,0.38523206734264315,0.40006803660543755,0.3956322753668261,0.4028341918364632,0.41875462238388084,0.43181496672005515,0.45079445380202554,0.4624374597387263,0.45833071103069767,0.44949216424467664,0.43880514149759453,0.4066385954659847,0.36530227356073575,0.32307784693504094,0.2841330086973891,0.2395994698611269,0.1965435835408641,0.1582140588061668,0.11387727933854463,0.07157556971428314,0.043452175308232976,0.050378323252709745,0.0877063150009939,0.1271552027291124,0.16863135538825713,0.21318852263092258,0.2522820513980927,0.29435026865026315,0.33878235093952547,0.37742980811814075,0.4200693479176635,0.46482767292207716,0.5055965525938678,0.5458709941920185,0.5906062331598126,0.6354161500783141,0.6782648582711736,0.7167506700879168,0.7611511790741842,0.8059683783216111,0.8507855999517865,0.8956028215819621,0.9404183928478888,0.9827769615552905,0.98420964377865,0.9452498153398278,0.9053644605338039,0.8642671099512654,0.8217781539187551,0.7832581727540501,0.7443892537444349,0.7040353415452453,0.6666327979358694,0.6334274451211815,0.6140605480261933,0.6172730624298978,0.6319114666437665,0.6440880056302333,0.6320985733197994,0.6021890800487822,0.5741250900536091,0.5475340921690294,0.526858427407081,0.5097084100048611,0.5019186855786625,0.4891764033053766,0.46637627197258047,0.44087554956952546,0.428873825926391,0.4334794984049729,0.42478294497221436,0.4017024435606339,0.3826007844231073,0.36876799451246234,0.3736115813645745,0.38834374539647276,0.4074052676188217,0.41645338091886475,0.41119052045260396,0.42006144467250783,0.44255171471238997,0.4572358443814214,0.4763332988154768,0.4804342042482962,0.47675917052777816,0.4686886429962177,0.4615459306055364,0.42658693668979286,0.3875942030332723,0.3477324406324688,0.3067753281433404,0.262049125407367,0.2210368642033126,0.18098374544219886,0.13627642521776073,0.09223021010107402,0.060452698459676824
0,1,2,3,4,5,6,7,8,9,10,11,12,13,14,15,16,17,18,19,20,21,22,23,24,25,26,27,28,29,30,31,32,33,34,35,36,37,38,39,40,41,42,43,44,45,46,47,48,49,50,51,52,53,54,55,56,57,58,59,60,61,62,63,64,65,66,67,68,69,70,71,72,73,74,75,76,77,78,79,80,81,82,83,84,85,86,87,88,89,90,91,92,93,94,95,96,97,98,99,100,101,102,103,104,105,106,107,108,109,110,111,112,113,114,115,116,117,118,119,120,121,122,123,124,125,126,127,128,129,130,131,132,133,134,135,136,137,138,139,140,141,142,143,144,145,146,147,148,149,150,151,152,153,154,155,156,157,158,159,160,161,162,163,164,165,166,167,168,169,170,171,172,173,174,175,176,177,178,179,180,181,182,183,184,185,186,187,188,189,190,191,192,193,194,195,196,197,198,199,200,201,202,203,204,205,206,207,208,209,210,211,212,213,214,215,216,217,218,219,220,221,222,223,224,225,226,227,228,229,230,231,232,233,234,235,236,237,238,239,240,241,242,243,244,245,246,247,248,249,250,251,252,253,254
0.6182331666918364,0.6403729445318738,0.6657392180251926,0.7034003009948526,0.7471472990997945,0.7876116506280708,0.8260392943520383,0.8704931448271653,0.9128188989440036,0.9560013378406726,0.9421603854657177,0.9124630944965453,0.8686176305732303,0.8263580734558158,0.7776781292089245,0.7328679153347115,0.6873282270152548,0.6432720784783321,0.6005511712723492,0.5620262669601404,0.5184384990874964,0.48237238970031293,0.45084729481840013,0.4397525262372415,0.43790993854109916,0.42715359219921734,0.3885423611226475,0.3572617864692571,0.33891783259458985,0.33107286984747564,0.3547453803531406,0.39295287935332013,0.39488167791452056,0.36775236952977286,0.33746273048136244,0.3088194175966015,0.2810179873941554,0.2507275773119404,0.22211900230540382,0.19694797370148276,0.177468802240061,0.17484763828990668,0.19272047273622928,0.22174463318213555,0.2529443626677783,0.2886061387422596,0.32627007947882736,0.36883345782504806,0.40731442550789465,0.4432804432212798,0.47497695898581926,0.5026880892562653,0.515326908468855,0.5152093569414034,0.5101416270612815,0.5157917499392171,0.4999123392396656,0.46839691649766113,0.44096952845892745,0.4357424976001245,0.45887664939426864,0.4847682720196058,0.5031071751768457,0.5224731783570655,0.5411997933527435,0.5497122703408694,0.5420060334752643,0.539632424889174,0.547837538480114,0.5749029439279703,0.5991906377920342,0.6405126066432694,0.6835080685836425,0.7255448501501083,0.7662802937807258,0.8125539011393978,0.8546779791728774,0.90348522979695,0.9446499245317563,0.9516739001835359,0.9047601408073731,0.8544985714330096,0.8114254485531796,0.7638030284300534,0.7132274474900462,0.6643889879237173,0.6220849402242454,0.5726192562372636,0.5295841159502057,0.4832990752442876,0.4411386556127772,0.3917908497322746,0.3487485069805003,0.3124051137258004,0.2840773068543745,0.25875064969738615,0.23353490854921866,0.21149056867096272,0.18410345507395265,0.15595617853795396,0.12564639800195798,0.09319422797264632,0.06467459621741245,0.03508521432525091,0.010017346256871562,0.0,0.017591153697354978,0.04427346022080392,0.07881759989548054,0.11438839316397953,0.1493722280625558,0.18875584864643513,0.233061752698422,0.271457424201204,0.31191565731803594,0.35238310443448606,0.3898880438481731,0.42344954190808926,0.44930553822292896,0.4689317431388955,0.4809240252517524,0.4756659478115224,0.46745447083860747,0.4398707805543933,0.4152573573882048,0.42097036859929937,0.449501293206535,0.47939703400958633,0.49405144214242847,0.5174142871961214,0.5332032077446383,0.5434533170489917,0.5503949263613428,0.5554105192725085,0.5520236245825199,0.5703003995768363,0.597005973479565,0.6297959053443143,0.6723952463442759,0.7157267277731569,0.7619900851110779,0.8043147566177609,0.8463800607289469,0.8940016900791765,0.9360821425863579,0.9583987184565379,0.9230005567801813,0.8730615507260435,0.826459869810342,0.7824908893843807,0.7333630849583275,0.6912425404729086,0.6451204915888831,0.6021688645920884,0.5598281775159366,0.517424630322803,0.47936180373628834,0.44489070048712787,0.41491121523180796,0.38921091832596666,0.3664453011919995,0.34175360140796607,0.31567341293101925,0.28223996998722667,0.2500253106055743,0.2212151711247885,0.19587830634772385,0.17411893054986716,0.16426950890975034,0.1772056247992455,0.201994835763754,0.23410671591156706,0.2678313812052173,0.3016386702605023,0.33830151520584373,0.3808972634905614,0.42079304210706314,0.45747789939578354,0.49407184938741255,0.5256398718769519,0.5552824199078628,0.5717466889532721,0.5818787362076681,0.5777501475145737,0.569356848454613,0.5474491045483385,0.5155372136821206,0.5092813540520329,0.533156919215598,0.5638749030894281,0.5766357718460693,0.5950360699541806,0.6078925810483515,0.6127188629244065,0.6049314802326908,0.599394916191976,0.6014802700469719,0.6304896541549625,0.6523549099578996,0.6962504103569176,0.7401035631514559,0.7859004226926982,0.8274875313085819,0.8682936458003205,0.91598130654769,0.9582067049414829,0.9999999999999998,0.9836750166616135,0.94100299411409,0.9067360139224891,0.8648528170974823,0.8196820689642672,0.7711184643505578,0.7287546468620394,0.6814078337545215,0.6388982342884344,0.5960587155623283,0.5533542411398324,0.5127286079041529,0.47290434772016043,0.44563661704338187,0.42389325103988607,0.40035016286781966,0.3747380587422229,0.34865895712324413,0.3135340079504523,0.28486990725866335,0.2560361342727795,0.23065070932597886,0.20584624041299793,0.19378468743545896,0.20396354711938391,0.22948452748316073,0.25976495817765444,0.2903243657773158,0.32427865675311573,0.36097121582974223,0.3993140567154603,0.44296730477935076,0.480179013522412,0.5140664756065088,0.5453210118025384,0.5710354425560233,0.5951768899130951,0.5994707296060129,0.5933898303738308,0.5782922454577333,0.5516151589358467,0.5273805119185473,0.5235041396446758,0.5495485366474946,0.5785064065572771,0.5918124121102688,0.6076857443961454,0.6198898628424667
0,1,2,3,4,5,6,7,8,9,10,11,12,13,14,15,16,17,18,19,20,21,22,23,24,25,26,27,28,29,30,31,32,33,34,35,36,37,38,39,40,41,42,43,44,45,46,47,48,49,50,51,52,53,54,55,56,57,58,59,60,61,62,63,64,65,66,67,68,69,70,71,72,73,74,75,76,77,78,79,80,81,82,83,84,85,86,87,88,89,90,91,92,93,94,95,96,97,98,99,100,101,102,103,104,105,106,107,108,109,110,111,112,113,114,115,116,117,118,119,120,121,122,123,124,125,126,127,128,129,130,131,132,133,134,135,136,137,138,139,140,141,142,143,144,145,146,147,148,149,150,151,152,153,154,155,156,157,158,159,160,161,162,163,164,165,166,167,168,169,170,171,172,173,174,175,176,177,178,179,180,181,182,183,184,185,186,187,188,189,190,191,192,193,194,195,196,197,198,199,200,201,202,203,204,205,206,207,208,209,210,211,212,213,214,215,216,217,218,219,220,221,222,223,224,225,226,227,228,229,230,231,232,233,234,235,236,237,238,239,240,241,242,243,244,245,246,247,248,249,250,251,252,253,254
0.8414642202251899,0.894354419268824,0.9500354826786221,0.9950111200762262,1.0,0.9543748472830815,0.8974608883376076,0.8403660706542913,0.7832712529709753,0.7261764934915034,0.6694075630545346,0.6188401034333619,0.5646651873395361,0.5096091983320632,0.46221355747934667,0.42197510685480055,0.3754486541795621,0.33024968013700073,0.28286832479504453,0.23502596150154464,0.18909810748598255,0.16732871553209838,0.141105670409583,0.11831883719532699,0.1306167555684572,0.15525670718266715,0.1775083529898136,0.17957044416880708,0.17923991675138473,0.17266857931769453,0.16872800005487787,0.16736944415551647,0.18191376896943834,0.20956659832128266,0.24456115079312735,0.28868697075231786,0.3321212998414118,0.37494402383067027,0.4169958721102591,0.45817821185971863,0.5009039500486587,0.5418844604094011,0.5797781254330483,0.5952074770495357,0.5727111800347349,0.5317567227190023,0.4901359877435638,0.4440012226579728,0.39710913282856164,0.35137152608292554,0.30265776340905926,0.25234481576772905,0.20662068335302686,0.16372775612651203,0.12477584575355327,0.09157756157732311,0.06390507540902779,0.05103878048455801,0.04977872538796024,0.06934604528152777,0.10710272221505335,0.1587864186607637,0.20918947639366836,0.260641059145871,0.31344347295882957,0.3684190719713991,0.4183916486263346,0.47488681590721193,0.5304463035667233,0.5801279846064269,0.6363911499397319,0.6934793263658312,0.7486771799396044,0.7985597174755399,0.854982714117337,0.9107021142208738,0.9580915768658058,0.9743821669514188,0.9347559765783631,0.8816336721185984,0.8305926833710311,0.7737170798505821,0.7166228395946797,0.6602643807489978,0.6104649562459858,0.5551256395172819,0.5008905918812174,0.46284313047842773,0.4130941237256016,0.359025718255658,0.3153198235575245,0.2665533427805231,0.2160975935260827,0.16798667723500316,0.14512887493286764,0.13472090980573537,0.10904369596268615,0.11464365152188516,0.13991077689429754,0.16105924187441478,0.1614843992522379,0.16992136403745506,0.1739237749575424,0.1698451487932351,0.16780187579181116,0.16540642058243904,0.18689044463774263,0.22037905347608389,0.2573954134855425,0.29639438618036884,0.3418971081109201,0.3834385567229155,0.4261686424481901,0.4688430707490461,0.5096912844895076,0.5516908449755311,0.5806358512903076,0.5753990201310679,0.5414463845630495,0.50087214353484,0.4565869800836284,0.40952583960852484,0.36331419927621345,0.3176543858287584,0.2720090460754552,0.22709912336810123,0.1807369936097003,0.13430985308716625,0.09456206084422347,0.0569645928207525,0.0303146278058537,0.029817210479897938,0.03743408118377167,0.06318647257151389,0.10365737944267628,0.1493296094965686,0.1982070982809816,0.2532481019534021,0.302879811064535,0.3588606421529017,0.41595358517367287,0.4730483545368176,0.5298729365375257,0.5805569145790053,0.634572317780846,0.6916386366081348,0.7470362393243115,0.7968079594830155,0.8531421307228695,0.9089884714512091,0.9531881455495435,0.961388020353259,0.9172747144421542,0.862344832581142,0.812478095836469,0.7559896626369467,0.69890593742939,0.6441640780863493,0.5940083273774635,0.5374005988964188,0.4820642561848274,0.4322987021621869,0.37749122357215104,0.3353582921142457,0.2905141890121401,0.23446017064130542,0.18593804195073393,0.16015879284496748,0.14181528173876767,0.1159223855546001,0.12203555513982867,0.14362346107952462,0.15698967361520433,0.15420224585586406,0.15533467276317325,0.16398606044268438,0.16172740800968355,0.15558785810797882,0.16301464569040514,0.19216044789690478,0.22901543152364523,0.26860280923647784,0.3088958998581066,0.3525812834926709,0.3967526552921894,0.4444873824406421,0.48564363538067923,0.5239165159998673,0.5479026150199666,0.5372279738385359,0.4982637929154652,0.4504010276768424,0.4058251140263329,0.3608471518821106,0.3135636674823039,0.2679397432872228,0.22335169584589143,0.17715642771531392,0.13283434254950688,0.09255532538212075,0.05286148363239218,0.018819521287428254,0.00022222036897212583,0.0,0.020728050734754477,0.051402390566963385,0.09571612905685556,0.14292656432058215,0.19312668437823444,0.24600686676710537,0.29803961859681216,0.35053629167079836,0.40753276882957823,0.46179748536609244,0.5122954891258875,0.5690506380034803,0.626063084751785,0.6780018793996092,0.7193248073577978,0.7682090634150316,0.8248451151264762,0.8753596417909373,0.9294762193325452,0.972588378140316,0.953333635905504,0.9059399888971504,0.8508349346858535,0.7937463120778614,0.7367836689763609,0.6850761671230425,0.6321881917311285,0.5751584947809203,0.519991867448599,0.47018703086023583,0.4178729808969619,0.3669309747664242,0.3196914071936119,0.276251223043938,0.226280740302786,0.17712826661130965,0.14262226527273558,0.12724762563354441,0.10443619009977811,0.11304255852521838,0.1406537820367626,0.15731296551404284,0.1669655250192157,0.17625298051143612,0.1795457926136308,0.17933375728044876,0.17360073100275852,0.18145843527904248,0.21486743541417508,0.25166500007498227,0.28862645447441637
0,1,2,3,4,5,6,7,8,9,10,11,12,13,14,15,16,17,18,19,20,21,22,23,24,25,26,27,28,29,30,31,32,33,34,35,36,37,38,39,40,41,42,43,44,45,46,47,48,49,50,51,52,53,54,55,56,57,58,59,60,61,62,63,64,65,66,67,68,69,70,71,72,73,74,75,76,77,78,79,80,81,82,83,84,85,86,87,88,89,90,91,92,93,94,95,96,97,98,99,100,101,102,103,104,105,106,107,108,109,110,111,112,113,114,115,116,117,118,119,120,121,122,123,124,125,126,127,128,129,130,131,132,133,134,135,136,137,138,139,140,141,142,143,144,145,146,147,148,149,150,151,152,153,154,155,156,157,158,159,160,161,162,163,164,165,166,167,168,169,170,171,172,173,174,175,176,177,178,179,180,181,182,183,184,185,186,187,188,189,190,191,192,193,194,195,196,197,198,199,200,201,202,203,204,205,206,207,208,209,210,211,212,213,214,215,216,217,218,219,220,221,222,223,224,225,226,227,228,229,230,231,232,233,234,235,236,237,238,239,240,241,242,243,244,245,246,247,248,249,250,251,252,253,254
0.8414642202251899,0.894354419268824,0.9500354826786221,0.9950111200762262,1.0,0.9543748472830815,0.8974608883376076,0.8403660706542913,0.7832712529709753,0.7261764934915034,0.6694075630545346,0.6188401034333619,0.5646651873395361,0.5096091983320632,0.46221355747934667,0.42197510685480055,0.3754486541795621,0.33024968013700073,0.28286832479504453,0.23502596150154464,0.18909810748598255,0.16732871553209838,0.141105670409583,0.11831883719532699,0.1306167555684572,0.15525670718266715,0.1775083529898136,0.17957044416880708,0.17923991675138473,0.17266857931769453,0.16872800005487787,0.16736944415551647,0.18191376896943834,0.20956659832128266,0.24456115079312735,0.28868697075231786,0.3321212998414118,0.37494402383067027,0.4169958721102591,0.45817821185971863,0.5009039500486587,0.5418844604094011,0.5797781254330483,0.5952074770495357,0.5727111800347349,0.5317567227190023,0.4901359877435638,0.4440012226579728,0.39710913282856164,0.35137152608292554,0.30265776340905926,0.25234481576772905,0.20662068335302686,0.16372775612651203,0.12477584575355327,0.09157756157732311,0.06390507540902779,0.05103878048455801,0.04977872538796024,0.06934604528152777,0.10710272221505335,0.1587864186607637,0.20918947639366836,0.260641059145871,0.31344347295882957,0.3684190719713991,0.4183916486263346,0.47488681590721193,0.5304463035667233,0.5801279846064269,0.6363911499397319,0.6934793263658312,0.7486771799396044,0.7985597174755399,0.854982714117337,0.9107021142208738,0.9580915768658058,0.9743821669514188,0.9347559765783631,0.8816336721185984,0.8305926833710311,0.7737170798505821,0.7166228395946797,0.6602643807489978,0.6104649562459858,0.5551256395172819,0.5008905918812174,0.46284313047842773,0.4130941237256016,0.359025718255658,0.3153198235575245,0.2665533427805231,0.2160975935260827,0.16798667723500316,0.14512887493286764,0.13472090980573537,0.10904369596268615,0.11464365152188516,0.13991077689429754,0.16105924187441478,0.1614843992522379,0.16992136403745506,0.1739237749575424,0.1698451487932351,0.16780187579181116,0.16540642058243904,0.18689044463774263,0.22037905347608389,0.2573954134855425,0.29639438618036884,0.3418971081109201,0.3834385567229155,0.4261686424481901,0.4688430707490461,0.5096912844895076,0.5516908449755311,0.5806358512903076,0.5753990201310679,0.5414463845630495,0.50087214353484,0.4565869800836284,0.40952583960852484,0.36331419927621345,0.3176543858287584,0.2720090460754552,0.22709912336810123,0.1807369936097003,0.13430985308716625,0.09456206084422347,0.0569645928207525,0.0303146278058537,0.029817210479897938,0.03743408118377167,0.06318647257151389,0.10365737944267628,0.1493296094965686,0.1982070982809816,0.2532481019534021,0.302879811064535,0.3588606421529017,0.41595358517367287,0.4730483545368176,0.5298729365375257,0.5805569145790053,0.634572317780846,0.6916386366081348,0.7470362393243115,0.7968079594830155,0.8531421307228695,0.9089884714512091,0.9531881455495435,0.961388020353259,0.9172747144421542,0.862344832581142,0.812478095836469,0.7559896626369467,0.69890593742939,0.6441640780863493,0.5940083273774635,0.5374005988964188,0.4820642561848274,0.4322987021621869,0.37749122357215104,0.3353582921142457,0.2905141890121401,0.23446017064130542,0.18593804195073393,0.16015879284496748,0.14181528173876767,0.1159223855546001,0.12203555513982867,0.14362346107952462,0.15698967361520433,0.15420224585586406,0.15533467276317325,0.16398606044268438,0.16172740800968355,0.15558785810797882,0.16301464569040514,0.19216044789690478,0.22901543152364523,0.26860280923647784,0.3088958998581066,0.3525812834926709,0.3967526552921894,0.4444873824406421,0.48564363538067923,0.5239165159998673,0.5479026150199666,0.5372279738385359,0.4982637929154652,0.4504010276768424,0.4058251140263329,0.3608471518821106,0.3135636674823039,0.2679397432872228,0.22335169584589143,0.17715642771531392,0.13283434254950688,0.09255532538212075,0.05286148363239218,0.018819521287428254,0.00022222036897212583,0.0,0.020728050734754477,0.051402390566963385,0.09571612905685556,0.14292656432058215,0.19312668437823444,0.24600686676710537,0.29803961859681216,0.35053629167079836,0.40753276882957823,0.46179748536609244,0.5122954891258875,0.5690506380034803,0.626063084751785,0.6780018793996092,0.7193248073577978,0.7682090634150316,0.8248451151264762,0.8753596417909373,0.9294762193325452,0.972588378140316,0.953333635905504,0.9059399888971504,0.8508349346858535,0.7937463120778614,0.7367836689763609,0.6850761671230425,0.6321881917311285,0.5751584947809203,0.519991867448599,0.47018703086023583,0.4178729808969619,0.3669309747664242,0.3196914071936119,0.276251223043938,0.226280740302786,0.17712826661130965,0.14262226527273558,0.12724762563354441,0.10443619009977811,0.11304255852521838,0.1406537820367626,0.15731296551404284,0.1669655250192157,0.17625298051143612,0.1795457926136308,0.17933375728044876,0.17360073100275852,0.18145843527904248,0.21486743541417508,0.25166500007498227,0.28862645447441637
0,1,2,3,4,5,6,7,8,9,10,11,12,13,14,15,16,17,18,19,20,21,22,23,24,25,26,27,28,29,30,31,32,33,34,35,36,37,38,39,40,41,42,43,44,45,46,47,48,49,50,51,52,53,54,55,56,57,58,59,60,61,62,63,64,65,66,67,68,69,70,71,72,73,74,75,76,77,78,79,80,81,82,83,84,85,86,87,88,89,90,91,92,93,94,95,96,97,98,99,100,101,102,103,104,105,106,107,108,109,110,111,112,113,114,115,116,117,118,119,120,121,122,123,124,125,126,127,128,129,130,131,132,133,134,135,136,137,138,139,140,141,142,143,144,145,146,147,148,149,150,151,152,153,154,155,156,157,158,159,160,161,162,163,164,165,166,167,168,169,170,171,172,173,174,175,176,177,178,179,180,181,182,183,184,185,186,187,188,189,190,191,192,193,194,195,196,197,198,199,200,201,202,203,204,205,206,207,208,209,210,211,212,213,214,215,216,217,218,219,220,221,222,223,224,225,226,227,228,229,230,231,232,233,234,235,236,237,238,239,240,241,242,243,244,245,246,247,248,249,250,251,252,253,254
0.7793289479214942,0.7055927257905252,0.6231282687051665,0.5411436615231273,0.4767224052804324,0.40131921302671225,0.3188561087274535,0.23638418949942208,0.15391227027139198,0.07144940795577481,0.0,0.024852268997597182,0.09278382098300453,0.1599306363826738,0.22355507794140328,0.28931285759981806,0.3712612118968317,0.4379896567878192,0.4624228602434024,0.4630061746132301,0.4630061746132301,0.46254492627079236,0.4448726141291446,0.4373999962667301,0.43739065767882357,0.43699674057056237,0.4202508410857413,0.4014222689074587,0.39551781409267894,0.41565151632046016,0.4359641642229799,0.43431616799268147,0.41327393757040154,0.4117751407444179,0.4117751407444179,0.4117751407444179,0.4117751407444179,0.4117744861704993,0.40993952334882033,0.38715742454378654,0.3622513336830884,0.34130549461687787,0.334936008445609,0.3345668895313225,0.3239733271192109,0.32431243620714545,0.30929788216749055,0.2955606701177911,0.28377624100942755,0.2836975560723851,0.2840385431547543,0.3047715187570508,0.3491570575946521,0.3994202776446918,0.44228433911987564,0.4966563452196868,0.5486518070345796,0.6035389447840589,0.670074494940335,0.723342001488207,0.771894581539708,0.8191121477607024,0.8646175254012438,0.9043022390789006,0.9234079577543786,0.908816750215522,0.859226060292007,0.8125783175013361,0.7617217716968026,0.726220457126558,0.6649961583774657,0.618131917128022,0.5900610212662829,0.5555628476955401,0.5265803738089256,0.49891345048202185,0.47175121500347617,0.46301314884823386,0.45809646336355536,0.43840710577010134,0.43695141370984336,0.41655048119466587,0.37570062565885776,0.3331532603741443,0.281194900833436,0.24908246983107896,0.2886316576457779,0.36099243638686707,0.4394183942485772,0.5018143766900738,0.5827367774294658,0.6574328115229142,0.7225161817420616,0.8044320392044555,0.8720248364360015,0.8878538153478321,0.8554208120551512,0.7821402770628265,0.7326464564759632,0.683837055388596,0.6097576764283272,0.5272960994682117,0.4448241802401811,0.36235226101215057,0.2798803417841209,0.19847571228071148,0.13562334568000978,0.062010373203496005,0.06954286842637059,0.12898033897864591,0.19112766201663733,0.254292720891383,0.32234825376419396,0.38980320722178474,0.45049837067805454,0.46659157503892024,0.4865071874629492,0.4730776903160723,0.4853965153682611,0.4836834028019097,0.4641174383537545,0.4758037038631744,0.4791198072865952,0.4590717811737979,0.43858357481938404,0.4375103323657883,0.4512358197625752,0.47851481712035193,0.49143540206106584,0.5121191486733125,0.5142362593498615,0.5142372084820432,0.5142372084820432,0.5142372084820432,0.5142372084820432,0.5142372084820432,0.5144373445299624,0.5299902097439584,0.5189850951113182,0.5153971228214629,0.5326722035936791,0.5157246750583,0.5023102111102733,0.5077635876002247,0.5115924230091768,0.48078800890703066,0.4516493431431292,0.4372406387815295,0.4222175416151317,0.42541794010384626,0.4203976503231952,0.4354424637684704,0.4606688206880487,0.5057396611127847,0.5473413685345574,0.6071515368839555,0.6624342498214078,0.7173576881564121,0.7801582029636926,0.835961037728691,0.8823380178137197,0.9335792561401353,0.9749901518249442,1.0000000000000004,0.9888464532459138,0.9491178999889542,0.9075451973027167,0.8561976176528616,0.8126253412368514,0.7713466844615771,0.7256544270707201,0.6861336088840164,0.647701281372409,0.6142778139207175,0.5920663810717914,0.576386216932693,0.5628717207918688,0.5416607706603771,0.5398381788875315,0.5337253044692312,0.514567433836532,0.496758072983956,0.4771133492945192,0.4532045149835633,0.4977230014167753,0.5586840613459505,0.6344520540180327,0.6957651847424597,0.7753289145081035,0.8443540541521188,0.8712062591476513,0.8389747429384591,0.7720571785713752,0.7337388536635037,0.66991693157772,0.5876683570273404,0.5052082161894629,0.4285342761191404,0.36505166644223275,0.2833961970496257,0.20092427782159783,0.11845305680574691,0.039223619204568294,0.03720034583124798,0.09781280159798289,0.17704042893578364,0.23863958961466336,0.31405451043561206,0.3766312317327096,0.4407020282468497,0.480166025859432,0.5071453544095141,0.506559834661354,0.5035874154373619,0.5101721669548058,0.4898381378947678,0.4887383299568291,0.5035194781262162,0.5331259927241105,0.5109623278381856,0.4896910803536998,0.4886216915476367,0.4886216915476367,0.4886216915476367,0.4886216915476367,0.4886216915476367,0.4886216915476367,0.4886216915476367,0.4875228787204917,0.4686785937585234,0.4827632230112253,0.48808304419970705,0.4695783247807488,0.45057614844282456,0.4371615005735774,0.42117606984366907,0.40867161452264567,0.38659324250568217,0.3655109551719984,0.3532299429216983,0.3354074793933992,0.33165295308201914,0.326627865781989,0.31375431622818484,0.3093164767911687,0.3095010639436233,0.32822788165226724,0.36890160622765533,0.4112100850538334,0.47695014621914256,0.5309945009801491,0.5751888283710458,0.6379217664536694,0.7005969183926006,0.7546255816704179
0,1,2,3,4,5,6,7,8,9,10,11,12,13,14,15,16,17,18,19,20,21,22,23,24,25,26,27,28,29,30,31,32,33,34,35,36,37,38,39,40,41,42,43,44,45,46,47,48,49,50,51,52,53,54,55,56,57,58,59,60,61,62,63,64,65,66,67,68,69,70,71,72,73,74,75,76,77,78,79,80,81,82,83,84,85,86,87,88,89,90,91,92,93,94,95,96,97,98,99,100,101,102,103,104,105,106,107,108,109,110,111,112,113,114,115,116,117,118,119,120,121,122,123,124,125,126,127,128,129,130,131,132,133,134,135,136,137,138,139,140,141,142,143,144,145,146,147,148,149,150,151,152,153,154,155,156,157,158,159,160,161,162,163,164,165,166,167,168,169,170,171,172,173,174,175,176,177,178,179,180,181,182,183,184,185,186,187,188,189,190,191,192,193,194,195,196,197,198,199,200,201,202,203,204,205,206,207,208,209,210,211,212,213,214,215,216,217,218,219,220,221,222,223,224,225,226,227,228,229,230,231,232,233,234,235,236,237,238,239,240,241,242,243,244,245,246,247,248,249,250,251,252,253,254
0.7793289479214942,0.7055927257905252,0.6231282687051665,0.5411436615231273,0.4767224052804324,0.40131921302671225,0.3188561087274535,0.23638418949942208,0.15391227027139198,0.07144940795577481,0.0,0.024852268997597182,0.09278382098300453,0.1599306363826738,0.22355507794140328,0.28931285759981806,0.3712612118968317,0.4379896567878192,0.4624228602434024,0.4630061746132301,0.4630061746132301,0.46254492627079236,0.4448726141291446,0.4373999962667301,0.43739065767882357,0.43699674057056237,0.4202508410857413,0.4014222689074587,0.39551781409267894,0.41565151632046016,0.4359641642229799,0.43431616799268147,0.41327393757040154,0.4117751407444179,0.4117751407444179,0.4117751407444179,0.4117751407444179,0.4117744861704993,0.40993952334882033,0.38715742454378654,0.3622513336830884,0.34130549461687787,0.334936008445609,0.3345668895313225,0.3239733271192109,0.32431243620714545,0.30929788216749055,0.2955606701177911,0.28377624100942755,0.2836975560723851,0.2840385431547543,0.3047715187570508,0.3491570575946521,0.3994202776446918,0.44228433911987564,0.4966563452196868,0.5486518070345796,0.6035389447840589,0.670074494940335,0.723342001488207,0.771894581539708,0.8191121477607024,0.8646175254012438,0.9043022390789006,0.9234079577543786,0.908816750215522,0.859226060292007,0.8125783175013361,0.7617217716968026,0.726220457126558,0.6649961583774657,0.618131917128022,0.5900610212662829,0.5555628476955401,0.5265803738089256,0.49891345048202185,0.47175121500347617,0.46301314884823386,0.45809646336355536,0.43840710577010134,0.43695141370984336,0.41655048119466587,0.37570062565885776,0.3331532603741443,0.281194900833436,0.24908246983107896,0.2886316576457779,0.36099243638686707,0.4394183942485772,0.5018143766900738,0.5827367774294658,0.6574328115229142,0.7225161817420616,0.8044320392044555,0.8720248364360015,0.8878538153478321,0.8554208120551512,0.7821402770628265,0.7326464564759632,0.683837055388596,0.6097576764283272,0.5272960994682117,0.4448241802401811,0.36235226101215057,0.2798803417841209,0.19847571228071148,0.13562334568000978,0.062010373203496005,0.06954286842637059,0.12898033897864591,0.19112766201663733,0.254292720891383,0.32234825376419396,0.38980320722178474,0.45049837067805454,0.46659157503892024,0.4865071874629492,0.4730776903160723,0.4853965153682611,0.4836834028019097,0.4641174383537545,0.4758037038631744,0.4791198072865952,0.4590717811737979,0.43858357481938404,0.4375103323657883,0.4512358197625752,0.47851481712035193,0.49143540206106584,0.5121191486733125,0.5142362593498615,0.5142372084820432,0.5142372084820432,0.5142372084820432,0.5142372084820432,0.5142372084820432,0.5144373445299624,0.5299902097439584,0.5189850951113182,0.5153971228214629,0.5326722035936791,0.5157246750583,0.5023102111102733,0.5077635876002247,0.5115924230091768,0.48078800890703066,0.4516493431431292,0.4372406387815295,0.4222175416151317,0.42541794010384626,0.4203976503231952,0.4354424637684704,0.4606688206880487,0.5057396611127847,0.5473413685345574,0.6071515368839555,0.6624342498214078,0.7173576881564121,0.7801582029636926,0.835961037728691,0.8823380178137197,0.9335792561401353,0.9749901518249442,1.0000000000000004,0.9888464532459138,0.9491178999889542,0.9075451973027167,0.8561976176528616,0.8126253412368514,0.7713466844615771,0.7256544270707201,0.6861336088840164,0.647701281372409,0.6142778139207175,0.5920663810717914,0.576386216932693,0.5628717207918688,0.5416607706603771,0.5398381788875315,0.5337253044692312,0.514567433836532,0.496758072983956,0.4771133492945192,0.4532045149835633,0.4977230014167753,0.5586840613459505,0.6344520540180327,0.6957651847424597,0.7753289145081035,0.8443540541521188,0.8712062591476513,0.8389747429384591,0.7720571785713752,0.7337388536635037,0.66991693157772,0.5876683570273404,0.5052082161894629,0.4285342761191404,0.36505166644223275,0.2833961970496257,0.20092427782159783,0.11845305680574691,0.039223619204568294,0.03720034583124798,0.09781280159798289,0.17704042893578364,0.23863958961466336,0.31405451043561206,0.3766312317327096,0.4407020282468497,0.480166025859432,0.5071453544095141,0.506559834661354,0.5035874154373619,0.5101721669548058,0.4898381378947678,0.4887383299568291,0.5035194781262162,0.5331259927241105,0.5109623278381856,0.4896910803536998,0.4886216915476367,0.4886216915476367,0.4886216915476367,0.4886216915476367,0.4886216915476367,0.4886216915476367,0.4886216915476367,0.4875228787204917,0.4686785937585234,0.4827632230112253,0.48808304419970705,0.4695783247807488,0.45057614844282456,0.4371615005735774,0.42117606984366907,0.40867161452264567,0.38659324250568217,0.3655109551719984,0.3532299429216983,0.3354074793933992,0.33165295308201914,0.326627865781989,0.31375431622818484,0.3093164767911687,0.3095010639436233,0.32822788165226724,0.36890160622765533,0.4112100850538334,0.47695014621914256,0.5309945009801491,0.5751888283710458,0.6379217664536694,0.7005969183926006,0.7546255816704179
0,1,2,3,4,5,6,7,8,9,10,11,12,13,14,15,16,17,18,19,20,21,22,23,24,25,26,27,28,29,30,31,32,33,34,35,36,37,38,39,40,41,42,43,44,45,46,47,48,49,50,51,52,53,54,55,56,57,58,59,60,61,62,63,64,65,66,67,68,69,70,71,72,73,74,75,76,77,78,79,80,81,82,83,84,85,86,87,88,89,90,91,92,93,94,95,96,97,98,99,100,101,102,103,104,105,106,107,108,109,110,111,112,113,114,115,116,117,118,119,120,121,122,123,124,125,126,127,128,129,130,131,132,133,134,135,136,137,138,139,140,141,142,143,144,145,146,147,148,149,150,151,152,153,154,155,156,157,158,159,160,161,162,163,164,165,166,167,168,169,170,171,172,173,174,175,176,177,178,179,180,181,182,183,184,185,186,187,188,189,190,191,192,193,194,195,196,197,198,199,200,201,202,203,204,205,206,207,208,209,210,211,212,213,214,215,216,217,218,219,220,221,222,223,224,225,226,227,228,229,230,231,232,233,234,235,236,237,238,239,240,241,242,243,244,245,246,247,248,249,250,251,252,253,254
0.1263405892177516,0.13833398194661872,0.13069907551155446,0.10617532784906447,0.0778504987122206,0.04836019162907146,0.02789765301105418,0.01770518374651142,0.021670652513557487,0.030558955610402005,0.05343583908274607,0.08781952467429543,0.13135938360646238,0.17554940052025736,0.2193052287320123,0.26805258317098835,0.3157939628437898,0.35931707655245027,0.4078627638710779,0.45699573771301516,0.5054181850835355,0.5488464734887974,0.5968047386039714,0.6459364029785117,0.6947535892122143,0.7386676541756068,0.7857540561946386,0.8344176090673292,0.873730234147442,0.8722357197671702,0.8329066553518434,0.7852305270669915,0.7361008401107074,0.6869663559234986,0.6378941505619904,0.592236720557388,0.5470645804200827,0.4980265352860882,0.4488920510988794,0.39975756691167086,0.3506230827244625,0.3014973460217929,0.25417804673151756,0.21041875338826,0.1616830641761564,0.11254877789984308,0.0634160698107038,0.01664641911336484,0.015193294374709065,0.0508037483008239,0.06850576591739221,0.071841969224536,0.05268427080930893,0.02966796790078252,0.03192510351718414,0.05800931379542762,0.07331964775678657,0.07790830683631311,0.08945503759378859,0.10408563476149757,0.1246455510469564,0.1447822026008092,0.14253494287748958,0.11803271730226306,0.08663713616346502,0.05708543992574877,0.03920653689550013,0.03950250010563949,0.05253080194512427,0.05778582879740224,0.07514144617431118,0.10984958605852557,0.1531628509502534,0.19906918805522622,0.24247629753472166,0.2908478861962074,0.3385883111780621,0.38211142488672234,0.4306571122053495,0.47979008604728723,0.528212533417808,0.5716408218230693,0.6195990869382437,0.6687274798297183,0.7166654615736083,0.7601045388936776,0.8083988340505699,0.8498462182711681,0.8512373113631937,0.8112601686368082,0.7659079431721154,0.7168522792950993,0.6677177951078914,0.6185842008812035,0.570151636108077,0.5267125587880075,0.4787745770441181,0.429643490283272,0.3805090060960632,0.3313745219088542,0.2822400377216463,0.23318205712034024,0.1878023082047553,0.1423617538755917,0.09330226862026136,0.04663445437692215,0.0452263843458498,0.07492607226246562,0.08102140651686374,0.07163459084002222,0.04988296574851603,0.028947722084999183,0.04202632905972248,0.068012390335213,0.07601353688963042,0.08538796322795439,0.10161334142781997,0.12210571737402232,0.1428846318027266,0.14675472527204025,0.12987476501815043,0.10199160776086558,0.07036941264920715,0.04301750048347297,0.031951818678630506,0.04055169420785232,0.051040218598924714,0.06266529417037736,0.08780351228956329,0.12683562931723813,0.17345340004599108,0.21684357390761422,0.2649886246067341,0.31131490880454193,0.3558611108382628,0.40482299564451996,0.4539574078641304,0.5028242368527673,0.5469249277029584,0.5937807148220984,0.6428972824772397,0.6920190769956596,0.7391286184496138,0.7830369413583733,0.8318369550287765,0.880503454107294,0.9239463240984778,0.9566751889068335,0.9381304570035716,0.8910976936028496,0.8419679740742723,0.7930869247714363,0.748926279855245,0.7021454906306042,0.6530281039591379,0.6038936197719289,0.554759135584721,0.5056246513975122,0.4564901672103032,0.40735823813024674,0.3593564125674913,0.3159343701042132,0.26754929814674466,0.21841586238568467,0.16928137819847588,0.1201468940112671,0.0710426338551704,0.030493814958194587,0.05048497524713902,0.08934955367168862,0.10991241810777552,0.10659241591551982,0.08943679016163064,0.06517398696204024,0.058037491316694556,0.0830676639557768,0.10126913184550679,0.10507159293538337,0.11593332632104669,0.12917027003321757,0.1446596922201937,0.14169924723316707,0.12431061216607509,0.09638222206365343,0.06593766806137014,0.037661614667879206,0.03315643370953758,0.033507431517728836,0.03587683405646791,0.04381877502255804,0.07449725197253376,0.11336279186494691,0.15870989563798155,0.20776228388333906,0.2546088235538422,0.2987190040685477,0.3475838902555919,0.39671832046710187,0.4456845249251067,0.4902245856913774,0.5365525570788605,0.5856581411045116,0.6347926252917204,0.6839237120525663,0.7318616937964568,0.7753007711165261,0.8237333358896528,0.8728359134623793,0.9191641977184624,0.963475117530777,1.0,0.9873275662972762,0.941239226026469,0.8923528076802758,0.8481416983625971,0.8014266595838213,0.7523101544817452,0.7031756702945364,0.6540411861073276,0.6049067019201189,0.5557722177329099,0.5066377335457011,0.45751979293687506,0.4106062936190884,0.36655225924059676,0.3176978409406932,0.2685634287210825,0.21942894453387374,0.17029446034666473,0.12115997615945595,0.07203124665411087,0.02673456277242492,0.02939199041054419,0.05983832085969332,0.05949240681903212,0.053764719665457816,0.031846773327133704,0.006218605078375461,0.016458495746126012,0.042979460179620066,0.05203650848578523,0.05373226117871366,0.06045398550212133,0.07904790558782593,0.09654217860435232,0.10831091087643774,0.09717737208140997,0.07067770037050769,0.0426963045699682,0.026066884318104666,0.015670357894412623,0.0,0.0017062168319970095,0.015393368869959012,0.02564535213026775
0,1,2,3,4,5,6,7,8,9,10,11,12,13,14,15,16,17,18,19,20,21,22,23,24,25,26,27,28,29,30,31,32,33,34,35,36,37,38,39,40,41,42,43,44,45,46,47,48,49,50,51,52,53,54,55,56,57,58,59,60,61,62,63,64,65,66,67,68,69,70,71,72,73,74,75,76,77,78,79,80,81,82,83,84,85,86,87,88,89,90,91,92,93,94,95,96,97,98,99,100,101,102,103,104,105,106,107,108,109,110,111,112,113,114,115,116,117,118,119,120,121,122,123,124,125,126,127,128,129,130,131,132,133,134,135,136,137,138,139,140,141,142,143,144,145,146,147,148,149,150,151,152,153,154,155,156,157,158,159,160,161,162,163,164,165,166,167,168,169,170,171,172,173,174,175,176,177,178,179,180,181,182,183,184,185,186,187,188,189,190,191,192,193,194,195,196,197,198,199,200,201,202,203,204,205,206,207,208,209,210,211,212,213,214,215,216,217,218,219,220,221,222,223,224,225,226,227,228,229,230,231,232,233,234,235,236,237,238,239,240,241,242,243,244,245,246,247,248,249,250,251,252,253,254
0.1263405892177516,0.13833398194661872,0.13069907551155446,0.10617532784906447,0.0778504987122206,0.04836019162907146,0.02789765301105418,0.01770518374651142,0.021670652513557487,0.030558955610402005,0.05343583908274607,0.08781952467429543,0.13135938360646238,0.17554940052025736,0.2193052287320123,0.26805258317098835,0.3157939628437898,0.35931707655245027,0.4078627638710779,0.45699573771301516,0.5054181850835355,0.5488464734887974,0.5968047386039714,0.6459364029785117,0.6947535892122143,0.7386676541756068,0.7857540561946386,0.8344176090673292,0.873730234147442,0.8722357197671702,0.8329066553518434,0.7852305270669915,0.7361008401107074,0.6869663559234986,0.6378941505619904,0.592236720557388,0.5470645804200827,0.4980265352860882,0.4488920510988794,0.39975756691167086,0.3506230827244625,0.3014973460217929,0.25417804673151756,0.21041875338826,0.1616830641761564,0.11254877789984308,0.0634160698107038,0.01664641911336484,0.015193294374709065,0.0508037483008239,0.06850576591739221,0.071841969224536,0.05268427080930893,0.02966796790078252,0.03192510351718414,0.05800931379542762,0.07331964775678657,0.07790830683631311,0.08945503759378859,0.10408563476149757,0.1246455510469564,0.1447822026008092,0.14253494287748958,0.11803271730226306,0.08663713616346502,0.05708543992574877,0.03920653689550013,0.03950250010563949,0.05253080194512427,0.05778582879740224,0.07514144617431118,0.10984958605852557,0.1531628509502534,0.19906918805522622,0.24247629753472166,0.2908478861962074,0.3385883111780621,0.38211142488672234,0.4306571122053495,0.47979008604728723,0.528212533417808,0.5716408218230693,0.6195990869382437,0.6687274798297183,0.7166654615736083,0.7601045388936776,0.8083988340505699,0.8498462182711681,0.8512373113631937,0.8112601686368082,0.7659079431721154,0.7168522792950993,0.6677177951078914,0.6185842008812035,0.570151636108077,0.5267125587880075,0.4787745770441181,0.429643490283272,0.3805090060960632,0.3313745219088542,0.2822400377216463,0.23318205712034024,0.1878023082047553,0.1423617538755917,0.09330226862026136,0.04663445437692215,0.0452263843458498,0.07492607226246562,0.08102140651686374,0.07163459084002222,0.04988296574851603,0.028947722084999183,0.04202632905972248,0.068012390335213,0.07601353688963042,0.08538796322795439,0.10161334142781997,0.12210571737402232,0.1428846318027266,0.14675472527204025,0.12987476501815043,0.10199160776086558,0.07036941264920715,0.04301750048347297,0.031951818678630506,0.04055169420785232,0.051040218598924714,0.06266529417037736,0.08780351228956329,0.12683562931723813,0.17345340004599108,0.21684357390761422,0.2649886246067341,0.31131490880454193,0.3558611108382628,0.40482299564451996,0.4539574078641304,0.5028242368527673,0.5469249277029584,0.5937807148220984,0.6428972824772397,0.6920190769956596,0.7391286184496138,0.7830369413583733,0.8318369550287765,0.880503454107294,0.9239463240984778,0.9566751889068335,0.9381304570035716,0.8910976936028496,0.8419679740742723,0.7930869247714363,0.748926279855245,0.7021454906306042,0.6530281039591379,0.6038936197719289,0.554759135584721,0.5056246513975122,0.4564901672103032,0.40735823813024674,0.3593564125674913,0.3159343701042132,0.26754929814674466,0.21841586238568467,0.16928137819847588,0.1201468940112671,0.0710426338551704,0.030493814958194587,0.05048497524713902,0.08934955367168862,0.10991241810777552,0.10659241591551982,0.08943679016163064,0.06517398696204024,0.058037491316694556,0.0830676639557768,0.10126913184550679,0.10507159293538337,0.11593332632104669,0.12917027003321757,0.1446596922201937,0.14169924723316707,0.12431061216607509,0.09638222206365343,0.06593766806137014,0.037661614667879206,0.03315643370953758,0.033507431517728836,0.03587683405646791,0.04381877502255804,0.07449725197253376,0.11336279186494691,0.15870989563798155,0.20776228388333906,0.2546088235538422,0.2987190040685477,0.3475838902555919,0.39671832046710187,0.4456845249251067,0.4902245856913774,0.5365525570788605,0.5856581411045116,0.6347926252917204,0.6839237120525663,0.7318616937964568,0.7753007711165261,0.8237333358896528,0.8728359134623793,0.9191641977184624,0.963475117530777,1.0,0.9873275662972762,0.941239226026469,0.8923528076802758,0.8481416983625971,0.8014266595838213,0.7523101544817452,0.7031756702945364,0.6540411861073276,0.6049067019201189,0.5557722177329099,0.5066377335457011,0.45751979293687506,0.4106062936190884,0.36655225924059676,0.3176978409406932,0.2685634287210825,0.21942894453387374,0.17029446034666473,0.12115997615945595,0.07203124665411087,0.02673456277242492,0.02939199041054419,0.05983832085969332,0.05949240681903212,0.053764719665457816,0.031846773327133704,0.006218605078375461,0.016458495746126012,0.042979460179620066,0.05203650848578523,0.05373226117871366,0.06045398550212133,0.07904790558782593,0.09654217860435232,0.10831091087643774,0.09717737208140997,0.07067770037050769,0.0426963045699682,0.026066884318104666,0.015670357894412623,0.0,0.0017062168319970095,0.015393368869959012,0.02564535213026775
0,1,2,3,4,5,6,7,8,9,10,11,12,13,14,15,16,17,18,19,20,21,22,23,24,25,26,27,28,29,30,31,32,33,34,35,36,37,38,39,40,41,42,43,44,45,46,47,48,49,50,51,52,53,54,55,56,57,58,59,60,61,62,63,64,65,66,67,68,69,70,71,72,73,74,75,76,77,78,79,80,81,82,83,84,85,86,87,88,89,90,91,92,93,94,95,96,97,98,99,100,101,102,103,104,105,106,107,108,109,110,111,112,113,114,115,116,117,118,119,120,121,122,123,124,125,126,127,128,129,130,131,132,133,134,135,136,137,138,139,140,141,142,143,144,145,146,147,148,149,150,151,152,153,154,155,156,157,158,159,160,161,162,163,164,165,166,167,168,169,170,171,172,173,174,175,176,177,178,179,180,181,182,183,184,185,186,187,188,189,190,191,192,193,194,195,196,197,198,199,200,201,202,203,204,205,206,207,208,209,210,211,212,213,214,215,216,217,218,219,220,221,222,223,224,225,226,227,228,229,230,231,232,233,234,235,236,237,238,239,240,241,242,243,244,245,246,247,248,249,250,251,252,253,254
0.24510457323219748,0.23776337901516875,0.23454974975648968,0.22734888433863443,0.21389187242870467,0.21415330598192872,0.21420971288332002,0.21799045244993365,0.23168703583593175,0.2495682244751538,0.2657611582986379,0.2763855410918814,0.291895862624991,0.31368028191989206,0.3421931649918275,0.37736156058034,0.40468857809383296,0.41675722220062195,0.40366084623161314,0.37618480059523596,0.3446069727628851,0.31038016730513185,0.2709296805945871,0.2289022636921907,0.19088378927624805,0.15294486220001136,0.11719354153899353,0.08486508077495203,0.05157048277364806,0.022922720144589626,0.0010135538761715246,0.0,0.004859832556455279,0.005443600294086748,0.014265929818428447,0.028289444084958593,0.056071165021710945,0.09306713981613424,0.13140745894523276,0.17656750449657266,0.21554851341734338,0.26175777688492974,0.3085111869768966,0.34779529776232554,0.39310664864547307,0.43955812873080546,0.47862307496212564,0.5242203650756796,0.5645125719721107,0.6084450046844623,0.6509994425624384,0.6925877066555772,0.7398153396876652,0.7871379714372124,0.8344606031867596,0.8816409253198798,0.9226110394674052,0.9607944170122753,0.9671349118387895,0.9314529283610713,0.8867122535050229,0.8471177511353325,0.8002314724267308,0.7561512447465786,0.7159432609373075,0.6693964064759137,0.6299382900635346,0.5848460025727111,0.537583621700962,0.4950554969283609,0.4534078448954746,0.40618263141766775,0.3595095153137555,0.3202772563920666,0.2750520334273894,0.24181017610218536,0.23861983302971734,0.23776721080730456,0.22617438278720958,0.20753618064841373,0.19696521064804728,0.2075740534249042,0.23040545614523156,0.2361311418287022,0.2377307151751331,0.2389776691685881,0.2465208867341251,0.25346955448689323,0.2533348627694967,0.24638351503275024,0.23817075646250174,0.22961502765043007,0.2279961595767419,0.2281873998627042,0.23549775781959892,0.24732821442249775,0.26270126292669027,0.27667870156220364,0.2967693937530116,0.3238238635035009,0.3491029040634115,0.37744733942071984,0.4052962650264673,0.42562399066108303,0.4198453693650779,0.39295999791346303,0.36083352099878696,0.32549640441091365,0.2899922713006422,0.2544631163950186,0.21892247349530325,0.18351464517308158,0.15018894362115986,0.11041284458088185,0.07863232408521292,0.05760720167445865,0.05494345501798992,0.05971929044068536,0.06794512411427278,0.07263902561899505,0.08777754151109796,0.10031151665339388,0.13477705401805196,0.17858605982606135,0.2175955677263497,0.26270418914667215,0.30167882932828927,0.34590209136932315,0.37669950123693874,0.41265908384485517,0.4581325293342464,0.5053700101652727,0.547263146893342,0.5895246901801245,0.6337304694795574,0.6735402263357577,0.7134913754918628,0.7556805114523288,0.7948801479171812,0.8415425389105291,0.8887699511399969,0.930255541814895,0.9572112549303182,0.9395292791618979,0.9017370377846832,0.8559120409641419,0.8085914532602905,0.7612779333385067,0.7164848964948001,0.676837679616638,0.6302348634256996,0.5903518200543929,0.5458915368770247,0.49857892040963536,0.452112262684095,0.4130606543492623,0.3672411595917924,0.32265180590709885,0.2838650070653772,0.2606887517681671,0.2581285791690737,0.24892550545030323,0.2365748897460831,0.22842389371954375,0.23955995968037258,0.2602292611893384,0.27706810197370935,0.28861744189295657,0.29171827377820336,0.2930495422910664,0.30138758070822047,0.3023507370513252,0.3020385025996879,0.29457883830094667,0.289413328844923,0.27618812715487806,0.2664264406121035,0.26091904946593325,0.2675594603568032,0.2696697440302842,0.28002850307476623,0.29322534185894833,0.3050148256563636,0.3205335069346522,0.34340840105347836,0.3682382598934042,0.3966053822885114,0.4244892433330827,0.43606546651167766,0.417039559675104,0.39305591546451035,0.3633291565942265,0.3288991718856389,0.29521927870530407,0.2582999048566563,0.22338708221525927,0.18868194104610225,0.1510659472176692,0.11985302799265796,0.10166613880707942,0.09546577648332732,0.10540660195540363,0.101679741877861,0.10672622837483048,0.11155091445241117,0.12489733677822423,0.15791252754772156,0.19769058099500914,0.24014814402289497,0.2819245367496359,0.32426030423865826,0.37008544269985877,0.40911527115889856,0.4555467406350149,0.5021376051645654,0.5412397938544578,0.586893074064756,0.6330771097400794,0.6720344705597583,0.7137339338676809,0.7549108102206508,0.7956514728258983,0.8389915988311354,0.8862821265142728,0.9331339007079826,0.972343005885882,1.0,0.9838458782976867,0.9433622745334609,0.8961549848954555,0.8488323531459074,0.8015750345554125,0.7593917674488879,0.7174123225767048,0.671417905831853,0.6324058198643105,0.5861412696728339,0.5388275235327993,0.4939130060152168,0.4543603853964622,0.40747389834775416,0.36071756228224405,0.3213497008158883,0.28105532167970115,0.26427854510125437,0.2586326869202873,0.24953837716924143,0.2398769008277406,0.2271518933369916,0.22539111185425909,0.24261874262202987,0.2491386025517659,0.24866972614267824,0.2407540826701966,0.24243073234463064
0,1,2,3,4,5,6,7,8,9,10,11,12,13,14,15,16,17,18,19,20,21,22,23,24,25,26,27,28,29,30,31,32,33,34,35,36,37,38,39,40,41,42,43,44,45,46,47,48,49,50,51,52,53,54,55,56,57,58,59,60,61,62,63,64,65,66,67,68,69,70,71,72,73,74,75,76,77,78,79,80,81,82,83,84,85,86,87,88,89,90,91,92,93,94,95,96,97,98,99,100,101,102,103,104,105,106,107,108,109,110,111,112,113,114,115,116,117,118,119,120,121,122,123,124,125,126,127,128,129,130,131,132,133,134,135,136,137,138,139,140,141,142,143,144,145,146,147,148,149,150,151,152,153,154,155,156,157,158,159,160,161,162,163,164,165,166,167,168,169,170,171,172,173,174,175,176,177,178,179,180,181,182,183,184,185,186,187,188,189,190,191,192,193,194,195,196,197,198,199,200,201,202,203,204,205,206,207,208,209,210,211,212,213,214,215,216,217,218,219,220,221,222,223,224,225,226,227,228,229,230,231,232,233,234,235,236,237,238,239,240,241,242,243,244,245,246,247,248,249,250,251,252,253,254
0.7793289479214942,0.7055927257905252,0.6231282687051665,0.5411436615231273,0.4767224052804324,0.40131921302671225,0.3188561087274535,0.23638418949942208,0.15391227027139198,0.07144940795577481,0.0,0.024852268997597182,0.09278382098300453,0.1599306363826738,0.22355507794140328,0.28931285759981806,0.3712612118968317,0.4379896567878192,0.4624228602434024,0.4630061746132301,0.4630061746132301,0.46254492627079236,0.4448726141291446,0.4373999962667301,0.43739065767882357,0.43699674057056237,0.4202508410857413,0.4014222689074587,0.39551781409267894,0.41565151632046016,0.4359641642229799,0.43431616799268147,0.41327393757040154,0.4117751407444179,0.4117751407444179,0.4117751407444179,0.4117751407444179,0.4117744861704993,0.40993952334882033,0.38715742454378654,0.3622513336830884,0.34130549461687787,0.334936008445609,0.3345668895313225,0.3239733271192109,0.32431243620714545,0.30929788216749055,0.2955606701177911,0.28377624100942755,0.2836975560723851,0.2840385431547543,0.3047715187570508,0.3491570575946521,0.3994202776446918,0.44228433911987564,0.4966563452196868,0.5486518070345796,0.6035389447840589,0.670074494940335,0.723342001488207,0.771894581539708,0.8191121477607024,0.8646175254012438,0.9043022390789006,0.9234079577543786,0.908816750215522,0.859226060292007,0.8125783175013361,0.7617217716968026,0.726220457126558,0.6649961583774657,0.618131917128022,0.5900610212662829,0.5555628476955401,0.5265803738089256,0.49891345048202185,0.47175121500347617,0.46301314884823386,0.45809646336355536,0.43840710577010134,0.43695141370984336,0.41655048119466587,0.37570062565885776,0.3331532603741443,0.281194900833436,0.24908246983107896,0.2886316576457779,0.36099243638686707,0.4394183942485772,0.5018143766900738,0.5827367774294658,0.6574328115229142,0.7225161817420616,0.8044320392044555,0.8720248364360015,0.8878538153478321,0.8554208120551512,0.7821402770628265,0.7326464564759632,0.683837055388596,0.6097576764283272,0.5272960994682117,0.4448241802401811,0.36235226101215057,0.2798803417841209,0.19847571228071148,0.13562334568000978,0.062010373203496005,0.06954286842637059,0.12898033897864591,0.19112766201663733,0.254292720891383,0.32234825376419396,0.38980320722178474,0.45049837067805454,0.46659157503892024,0.4865071874629492,0.4730776903160723,0.4853965153682611,0.4836834028019097,0.4641174383537545,0.4758037038631744,0.4791198072865952,0.4590717811737979,0.43858357481938404,0.4375103323657883,0.4512358197625752,0.47851481712035193,0.49143540206106584,0.5121191486733125,0.5142362593498615,0.5142372084820432,0.5142372084820432,0.5142372084820432,0.5142372084820432,0.5142372084820432,0.5144373445299624,0.5299902097439584,0.5189850951113182,0.5153971228214629,0.5326722035936791,0.5157246750583,0.5023102111102733,0.5077635876002247,0.5115924230091768,0.48078800890703066,0.4516493431431292,0.4372406387815295,0.4222175416151317,0.42541794010384626,0.4203976503231952,0.4354424637684704,0.4606688206880487,0.5057396611127847,0.5473413685345574,0.6071515368839555,0.6624342498214078,0.7173576881564121,0.7801582029636926,0.835961037728691,0.8823380178137197,0.9335792561401353,0.9749901518249442,1.0000000000000004,0.9888464532459138,0.9491178999889542,0.9075451973027167,0.8561976176528616,0.8126253412368514,0.7713466844615771,0.7256544270707201,0.6861336088840164,0.647701281372409,0.6142778139207175,0.5920663810717914,0.576386216932693,0.5628717207918688,0.5416607706603771,0.5398381788875315,0.5337253044692312,0.514567433836532,0.496758072983956,0.4771133492945192,0.4532045149835633,0.4977230014167753,0.5586840613459505,0.6344520540180327,0.6957651847424597,0.7753289145081035,0.8443540541521188,0.8712062591476513,0.8389747429384591,0.7720571785713752,0.7337388536635037,0.66991693157772,0.5876683570273404,0.5052082161894629,0.4285342761191404,0.36505166644223275,0.2833961970496257,0.20092427782159783,0.11845305680574691,0.039223619204568294,0.03720034583124798,0.09781280159798289,0.17704042893578364,0.23863958961466336,0.31405451043561206,0.3766312317327096,0.4407020282468497,0.480166025859432,0.5071453544095141,0.506559834661354,0.5035874154373619,0.5101721669548058,0.4898381378947678,0.4887383299568291,0.5035194781262162,0.5331259927241105,0.5109623278381856,0.4896910803536998,0.4886216915476367,0.4886216915476367,0.4886216915476367,0.4886216915476367,0.4886216915476367,0.4886216915476367,0.4886216915476367,0.4875228787204917,0.4686785937585234,0.4827632230112253,0.48808304419970705,0.4695783247807488,0.45057614844282456,0.4371615005735774,0.42117606984366907,0.40867161452264567,0.38659324250568217,0.3655109551719984,0.3532299429216983,0.3354074793933992,0.33165295308201914,0.326627865781989,0.31375431622818484,0.3093164767911687,0.3095010639436233,0.32822788165226724,0.36890160622765533,0.4112100850538334,0.47695014621914256,0.5309945009801491,0.5751888283710458,0.6379217664536694,0.7005969183926006,0.7546255816704179
0,1,2,3,4,5,6,7,8,9,10,11,12,13,14,15,16,17,18,19,20,21,22,23,24,25,26,27,28,29,30,31,32,33,34,35,36,37,38,39,40,41,42,43,44,45,46,47,48,49,50,51,52,53,54,55,56,57,58,59,60,61,62,63,64,65,66,67,68,69,70,71,72,73,74,75,76,77,78,79,80,81,82,83,84,85,86,87,88,89,90,91,92,93,94,95,96,97,98,99,100,101,102,103,104,105,106,107,108,109,110,111,112,113,114,115,116,117,118,119,120,121,122,123,124,125,126,127,128,129,130,131,132,133,134,135,136,137,138,139,140,141,142,143,144,145,146,147,148,149,150,151,152,153,154,155,156,157,158,159,160,161,162,163,164,165,166,167,168,169,170,171,172,173,174,175,176,177,178,179,180,181,182,183,184,185,186,187,188,189,190,191,192,193,194,195,196,197,198,199,200,201,202,203,204,205,206,207,208,209,210,211,212,213,214,215,216,217,218,219,220,221,222,223,224,225,226,227,228,229,230,231,232,233,234,235,236,237,238,239,240,241,242,243,244,245,246,247,248,249,250,251,252,253,254
0.7793289479214942,0.7055927257905252,0.6231282687051665,0.5411436615231273,0.4767224052804324,0.40131921302671225,0.3188561087274535,0.23638418949942208,0.15391227027139198,0.07144940795577481,0.0,0.024852268997597182,0.09278382098300453,0.1599306363826738,0.22355507794140328,0.28931285759981806,0.3712612118968317,0.4379896567878192,0.4624228602434024,0.4630061746132301,0.4630061746132301,0.46254492627079236,0.4448726141291446,0.4373999962667301,0.43739065767882357,0.43699674057056237,0.4202508410857413,0.4014222689074587,0.39551781409267894,0.41565151632046016,0.4359641642229799,0.43431616799268147,0.41327393757040154,0.4117751407444179,0.4117751407444179,0.4117751407444179,0.4117751407444179,0.4117744861704993,0.40993952334882033,0.38715742454378654,0.3622513336830884,0.34130549461687787,0.334936008445609,0.3345668895313225,0.3239733271192109,0.32431243620714545,0.30929788216749055,0.2955606701177911,0.28377624100942755,0.2836975560723851,0.2840385431547543,0.3047715187570508,0.3491570575946521,0.3994202776446918,0.44228433911987564,0.4966563452196868,0.5486518070345796,0.6035389447840589,0.670074494940335,0.723342001488207,0.771894581539708,0.8191121477607024,0.8646175254012438,0.9043022390789006,0.9234079577543786,0.908816750215522,0.859226060292007,0.8125783175013361,0.7617217716968026,0.726220457126558,0.6649961583774657,0.618131917128022,0.5900610212662829,0.5555628476955401,0.5265803738089256,0.49891345048202185,0.47175121500347617,0.46301314884823386,0.45809646336355536,0.43840710577010134,0.43695141370984336,0.41655048119466587,0.37570062565885776,0.3331532603741443,0.281194900833436,0.24908246983107896,0.2886316576457779,0.36099243638686707,0.4394183942485772,0.5018143766900738,0.5827367774294658,0.6574328115229142,0.7225161817420616,0.8044320392044555,0.8720248364360015,0.8878538153478321,0.8554208120551512,0.7821402770628265,0.7326464564759632,0.683837055388596,0.6097576764283272,0.5272960994682117,0.4448241802401811,0.36235226101215057,0.2798803417841209,0.19847571228071148,0.13562334568000978,0.062010373203496005,0.06954286842637059,0.12898033897864591,0.19112766201663733,0.254292720891383,0.32234825376419396,0.38980320722178474,0.45049837067805454,0.46659157503892024,0.4865071874629492,0.4730776903160723,0.4853965153682611,0.4836834028019097,0.4641174383537545,0.4758037038631744,0.4791198072865952,0.4590717811737979,0.43858357481938404,0.4375103323657883,0.4512358197625752,0.47851481712035193,0.49143540206106584,0.5121191486733125,0.5142362593498615,0.5142372084820432,0.5142372084820432,0.5142372084820432,0.5142372084820432,0.5142372084820432,0.5144373445299624,0.5299902097439584,0.5189850951113182,0.5153971228214629,0.5326722035936791,0.5157246750583,0.5023102111102733,0.5077635876002247,0.5115924230091768,0.48078800890703066,0.4516493431431292,0.4372406387815295,0.4222175416151317,0.42541794010384626,0.4203976503231952,0.4354424637684704,0.4606688206880487,0.5057396611127847,0.5473413685345574,0.6071515368839555,0.6624342498214078,0.7173576881564121,0.7801582029636926,0.835961037728691,0.8823380178137197,0.9335792561401353,0.9749901518249442,1.0000000000000004,0.9888464532459138,0.9491178999889542,0.9075451973027167,0.8561976176528616,0.8126253412368514,0.7713466844615771,0.7256544270707201,0.6861336088840164,0.647701281372409,0.6142778139207175,0.5920663810717914,0.576386216932693,0.5628717207918688,0.5416607706603771,0.5398381788875315,0.5337253044692312,0.514567433836532,0.496758072983956,0.4771133492945192,0.4532045149835633,0.4977230014167753,0.5586840613459505,0.6344520540180327,0.6957651847424597,0.7753289145081035,0.8443540541521188,0.8712062591476513,0.8389747429384591,0.7720571785713752,0.7337388536635037,0.66991693157772,0.5876683570273404,0.5052082161894629,0.4285342761191404,0.36505166644223275,0.2833961970496257,0.20092427782159783,0.11845305680574691,0.039223619204568294,0.03720034583124798,0.09781280159798289,0.17704042893578364,0.23863958961466336,0.31405451043561206,0.3766312317327096,0.4407020282468497,0.480166025859432,0.5071453544095141,0.506559834661354,0.5035874154373619,0.5101721669548058,0.4898381378947678,0.4887383299568291,0.5035194781262162,0.5331259927241105,0.5109623278381856,0.4896910803536998,0.4886216915476367,0.4886216915476367,0.4886216915476367,0.4886216915476367,0.4886216915476367,0.4886216915476367,0.4886216915476367,0.4875228787204917,0.4686785937585234,0.4827632230112253,0.48808304419970705,0.4695783247807488,0.45057614844282456,0.4371615005735774,0.42117606984366907,0.40867161452264567,0.38659324250568217,0.3655109551719984,0.3532299429216983,0.3354074793933992,0.33165295308201914,0.326627865781989,0.31375431622818484,0.3093164767911687,0.3095010639436233,0.32822788165226724,0.36890160622765533,0.4112100850538334,0.47695014621914256,0.5309945009801491,0.5751888283710458,0.6379217664536694,0.7005969183926006,0.7546255816704179
0,1,2,3,4,5,6,7,8,9,10,11,12,13,14,15,16,17,18,19,20,21,22,23,24,25,26,27,28,29,30,31,32,33,34,35,36,37,38,39,40,41,42,43,44,45,46,47,48,49,50,51,52,53,54,55,56,57,58,59,60,61,62,63,64,65,66,67,68,69,70,71,72,73,74,75,76,77,78,79,80,81,82,83,84,85,86,87,88,89,90,91,92,93,94,95,96,97,98,99,100,101,102,103,104,105,106,107,108,109,110,111,112,113,114,115,116,117,118,119,120,121,122,123,124,125,126,127,128,129,130,131,132,133,134,135,136,137,138,139,140,141,142,143,144,145,146,147,148,149,150,151,152,153,154,155,156,157,158,159,160,161,162,163,164,165,166,167,168,169,170,171,172,173,174,175,176,177,178,179,180,181,182,183,184,185,186,187,188,189,190,191,192,193,194,195,196,197,198,199,200,201,202,203,204,205,206,207,208,209,210,211,212,213,214,215,216,217,218,219,220,221,222,223,224,225,226,227,228,229,230,231,232,233,234,235,236,237,238,239,240,241,242,243,244,245,246,247,248,249,250,251,252,253,254
0.7793289479214942,0.7055927257905252,0.6231282687051665,0.5411436615231273,0.4767224052804324,0.40131921302671225,0.3188561087274535,0.23638418949942208,0.15391227027139198,0.07144940795577481,0.0,0.024852268997597182,0.09278382098300453,0.1599306363826738,0.22355507794140328,0.28931285759981806,0.3712612118968317,0.4379896567878192,0.4624228602434024,0.4630061746132301,0.4630061746132301,0.46254492627079236,0.4448726141291446,0.4373999962667301,0.43739065767882357,0.43699674057056237,0.4202508410857413,0.4014222689074587,0.39551781409267894,0.41565151632046016,0.4359641642229799,0.43431616799268147,0.41327393757040154,0.4117751407444179,0.4117751407444179,0.4117751407444179,0.4117751407444179,0.4117744861704993,0.40993952334882033,0.38715742454378654,0.3622513336830884,0.34130549461687787,0.334936008445609,0.3345668895313225,0.3239733271192109,0.32431243620714545,0.30929788216749055,0.2955606701177911,0.28377624100942755,0.2836975560723851,0.2840385431547543,0.3047715187570508,0.3491570575946521,0.3994202776446918,0.44228433911987564,0.4966563452196868,0.5486518070345796,0.6035389447840589,0.670074494940335,0.723342001488207,0.771894581539708,0.8191121477607024,0.8646175254012438,0.9043022390789006,0.9234079577543786,0.908816750215522,0.859226060292007,0.8125783175013361,0.7617217716968026,0.726220457126558,0.6649961583774657,0.618131917128022,0.5900610212662829,0.5555628476955401,0.5265803738089256,0.49891345048202185,0.47175121500347617,0.46301314884823386,0.45809646336355536,0.43840710577010134,0.43695141370984336,0.41655048119466587,0.37570062565885776,0.3331532603741443,0.281194900833436,0.24908246983107896,0.2886316576457779,0.36099243638686707,0.4394183942485772,0.5018143766900738,0.5827367774294658,0.6574328115229142,0.7225161817420616,0.8044320392044555,0.8720248364360015,0.8878538153478321,0.8554208120551512,0.7821402770628265,0.7326464564759632,0.683837055388596,0.6097576764283272,0.5272960994682117,0.4448241802401811,0.36235226101215057,0.2798803417841209,0.19847571228071148,0.13562334568000978,0.062010373203496005,0.06954286842637059,0.12898033897864591,0.19112766201663733,0.254292720891383,0.32234825376419396,0.38980320722178474,0.45049837067805454,0.46659157503892024,0.4865071874629492,0.4730776903160723,0.4853965153682611,0.4836834028019097,0.4641174383537545,0.4758037038631744,0.4791198072865952,0.4590717811737979,0.43858357481938404,0.4375103323657883,0.4512358197625752,0.47851481712035193,0.49143540206106584,0.5121191486733125,0.5142362593498615,0.5142372084820432,0.5142372084820432,0.5142372084820432,0.5142372084820432,0.5142372084820432,0.5144373445299624,0.5299902097439584,0.5189850951113182,0.5153971228214629,0.5326722035936791,0.5157246750583,0.5023102111102733,0.5077635876002247,0.5115924230091768,0.48078800890703066,0.4516493431431292,0.4372406387815295,0.4222175416151317,0.42541794010384626,0.4203976503231952,0.4354424637684704,0.4606688206880487,0.5057396611127847,0.5473413685345574,0.6071515368839555,0.6624342498214078,0.7173576881564121,0.7801582029636926,0.835961037728691,0.8823380178137197,0.9335792561401353,0.9749901518249442,1.0000000000000004,0.9888464532459138,0.9491178999889542,0.9075451973027167,0.8561976176528616,0.8126253412368514,0.7713466844615771,0.7256544270707201,0.6861336088840164,0.647701281372409,0.6142778139207175,0.5920663810717914,0.576386216932693,0.5628717207918688,0.5416607706603771,0.5398381788875315,0.5337253044692312,0.514567433836532,0.496758072983956,0.4771133492945192,0.4532045149835633,0.4977230014167753,0.5586840613459505,0.6344520540180327,0.6957651847424597,0.7753289145081035,0.8443540541521188,0.8712062591476513,0.8389747429384591,0.7720571785713752,0.7337388536635037,0.66991693157772,0.5876683570273404,0.5052082161894629,0.4285342761191404,0.36505166644223275,0.2833961970496257,0.20092427782159783,0.11845305680574691,0.039223619204568294,0.03720034583124798,0.09781280159798289,0.17704042893578364,0.23863958961466336,0.31405451043561206,0.3766312317327096,0.4407020282468497,0.480166025859432,0.5071453544095141,0.506559834661354,0.5035874154373619,0.5101721669548058,0.4898381378947678,0.4887383299568291,0.5035194781262162,0.5331259927241105,0.5109623278381856,0.4896910803536998,0.4886216915476367,0.4886216915476367,0.4886216915476367,0.4886216915476367,0.4886216915476367,0.4886216915476367,0.4886216915476367,0.4875228787204917,0.4686785937585234,0.4827632230112253,0.48808304419970705,0.4695783247807488,0.45057614844282456,0.4371615005735774,0.42117606984366907,0.40867161452264567,0.38659324250568217,0.3655109551719984,0.3532299429216983,0.3354074793933992,0.33165295308201914,0.326627865781989,0.31375431622818484,0.3093164767911687,0.3095010639436233,0.32822788165226724,0.36890160622765533,0.4112100850538334,0.47695014621914256,0.5309945009801491,0.5751888283710458,0.6379217664536694,0.7005969183926006,0.7546255816704179
0,1,2,3,4,5,6,7,8,9,10,11,12,13,14,15,16,17,18,19,20,21,22,23,24,25,26,27,28,29,30,31,32,33,34,35,36,37,38,39,40,41,42,43,44,45,46,47,48,49,50,51,52,53,54,55,56,57,58,59,60,61,62,63,64,65,66,67,68,69,70,71,72,73,74,75,76,77,78,79,80,81,82,83,84,85,86,87,88,89,90,91,92,93,94,95,96,97,98,99,100,101,102,103,104,105,106,107,108,109,110,111,112,113,114,115,116,117,118,119,120,121,122,123,124,125,126,127,128,129,130,131,132,133,134,135,136,137,138,139,140,141,142,143,144,145,146,147,148,149,150,151,152,153,154,155,156,157,158,159,160,161,162,163,164,165,166,167,168,169,170,171,172,173,174,175,176,177,178,179,180,181,182,183,184,185,186,187,188,189,190,191,192,193,194,195,196,197,198,199,200,201,202,203,204,205,206,207,208,209,210,211,212,213,214,215,216,217,218,219,220,221,222,223,224,225,226,227,228,229,230,231,232,233,234,235,236,237,238,239,240,241,242,243,244,245,246,247,248,249,250,251,252,253,254
0.10920692674604138,0.14022064880766427,0.17584514026247167,0.21159265592089826,0.24743271067925976,0.28063917518693904,0.3057840814756032,0.32786193849603107,0.3459250399309415,0.36687153973559905,0.38509555947960905,0.3999951070263501,0.4218547080785431,0.4530900008193983,0.49493626597194273,0.5475938658806525,0.6027533801842009,0.6567258536230427,0.7020786115886906,0.7556955304790476,0.8108386213481831,0.861877919645103,0.9087938518762235,0.9513111047825205,0.9466202488285407,0.8982664193780558,0.843123733525335,0.7885325163759136,0.742587103177053,0.6901786222483901,0.6350165874842242,0.5798497506956779,0.5246829139071321,0.46951607711858623,0.41434924033004084,0.35918240354149455,0.30401699131684046,0.2503800786467214,0.21805457204999157,0.2442807544071628,0.28857342305588984,0.336064261347258,0.381377026293507,0.42031099303096786,0.42972942249182333,0.4350787945666892,0.4421879590055333,0.4390682039035392,0.4189790481181892,0.395873446408463,0.3774432030696313,0.36054750058095353,0.3697508100025888,0.3898690569698062,0.3921052976614008,0.39052596853146415,0.3812590192855656,0.3893761993944014,0.39252716117244635,0.4020580049014977,0.41479320491723604,0.42065844931560203,0.42944053094164847,0.4280747697209537,0.42375182819905666,0.4110402306944074,0.37874323998428405,0.3499406713036577,0.31619992735737634,0.2793914637766144,0.23959811442430823,0.19841879963904785,0.16073243365046852,0.1218563091892646,0.08280229759311508,0.04798673209768567,0.0586152222510119,0.09089688446028887,0.12130832044263151,0.15437295439206133,0.1900456841649052,0.22715208715837676,0.2660772616602669,0.2950496306638484,0.322521176687526,0.3452683209275005,0.3638170427230736,0.3848665494070884,0.40004030439934724,0.41486305781541066,0.43384695135997875,0.46776846123822,0.5122962315290152,0.5575127364321331,0.6101493573747363,0.6653090916136493,0.7204759284021951,0.7756427651907414,0.8307530526918594,0.8801839467218948,0.9286534594884737,0.9769679792058508,0.9885204231085742,0.9529917007338153,0.900482230831051,0.8550419598533279,0.8007630306442852,0.7455965415826933,0.6904297047941466,0.6352628680056012,0.5800960312170549,0.5249291944285095,0.46977161176751636,0.4174373224952199,0.37148029311601816,0.316822056501028,0.26165531707602874,0.2065781387361627,0.1681178336649789,0.2029934536172926,0.2483089244302641,0.29352308547067363,0.34287870720326685,0.3871658829350344,0.4224555781950228,0.4239666531839643,0.42877752928960255,0.4329479597477217,0.43895527668529777,0.41926154550159067,0.39374824408188625,0.37714766019602086,0.36077545438804925,0.3591041980729055,0.37789995371381835,0.38950103385013657,0.3815349134814867,0.37955539657991944,0.3813322118407756,0.3912006115817701,0.3981261606583022,0.404586580965022,0.40463077877405906,0.39985764395329193,0.391788832115489,0.380263432044206,0.35650472480060147,0.322525506054145,0.28589711202056645,0.2503842646497638,0.2100835798717393,0.1696237789406052,0.1287249565154318,0.0900678442594367,0.04875529472579787,0.01051740558445613,0.0,0.028376766321577485,0.061444835856291125,0.09716498076282254,0.12768717093589155,0.1629552541740289,0.19903070747103668,0.23437613394136192,0.2683721419612519,0.2959529605691933,0.31960141699450473,0.34420235024757373,0.36687725891694667,0.4008555374267173,0.42764862174120655,0.4407617441618954,0.46476541556239415,0.5009503562346795,0.5450684051847232,0.5945992303443028,0.6434401194990929,0.6924738809458582,0.7475639887934591,0.800849024346618,0.8462563801619507,0.9005076271431585,0.9556182099140926,1.0,0.9939136865857985,0.9628429184150789,0.9204859741802012,0.8665198185794347,0.8113534407904686,0.7561866040019227,0.7010197672133773,0.6458529304248315,0.5906998899838927,0.5393212301535812,0.49260190773682666,0.43774588986089613,0.3825790530723503,0.32741221628380446,0.27224537949525907,0.21708027601732205,0.16507342029540628,0.17161276717488372,0.2232959665001364,0.26862932842071485,0.31667884613644137,0.3634336706800525,0.407602869250284,0.45008507418918375,0.47715281813883426,0.47329370807116966,0.4773332119539808,0.4797789420887302,0.46621017886392657,0.43670686881291854,0.4161254059781241,0.39702772587225743,0.38601347539276887,0.3928275923046143,0.4120043393109132,0.41718735062510204,0.4161132891012076,0.406223071284451,0.4052640428422194,0.41466064207538844,0.41734340247823454,0.4242009096419581,0.4297315681767988,0.4295165236973273,0.4212695968108551,0.41239183213745845,0.39085160124209484,0.3588488594678889,0.3253645714589619,0.28929469847223377,0.24921567831889124,0.20785753966016496,0.16695238590229478,0.13351056278738782,0.10460181282293157,0.06610483685983581,0.0362430767891726,0.04917995520486107,0.08061625655581284,0.11407604129703386,0.1561911975212915,0.19733120028048234,0.22379482578411025,0.2502429835570048,0.2865336988988729,0.31450687394344534,0.34150893980254793,0.3596682126723105,0.38107081155305256,0.40187804379496184,0.41487887232513243
0,1,2,3,4,5,6,7,8,9,10,11,12,13,14,15,16,17,18,19,20,21,22,23,24,25,26,27,28,29,30,31,32,33,34,35,36,37,38,39,40,41,42,43,44,45,46,47,48,49,50,51,52,53,54,55,56,57,58,59,60,61,62,63,64,65,66,67,68,69,70,71,72,73,74,75,76,77,78,79,80,81,82,83,84,85,86,87,88,89,90,91,92,93,94,95,96,97,98,99,100,101,102,103,104,105,106,107,108,109,110,111,112,113,114,115,116,117,118,119,120,121,122,123,124,125,126,127,128,129,130,131,132,133,134,135,136,137,138,139,140,141,142,143,144,145,146,147,148,149,150,151,152,153,154,155,156,157,158,159,160,161,162,163,164,165,166,167,168,169,170,171,172,173,174,175,176,177,178,179,180,181,182,183,184,185,186,187,188,189,190,191,192,193,194,195,196,197,198,199,200,201,202,203,204,205,206,207,208,209,210,211,212,213,214,215,216,217,218,219,220,221,222,223,224,225,226,227,228,229,230,231,232,233,234,235,236,237,238,239,240,241,242,243,244,245,246,247,248,249,250,251,252,253,254
0.10920692674604138,0.14022064880766427,0.17584514026247167,0.21159265592089826,0.24743271067925976,0.28063917518693904,0.3057840814756032,0.32786193849603107,0.3459250399309415,0.36687153973559905,0.38509555947960905,0.3999951070263501,0.4218547080785431,0.4530900008193983,0.49493626597194273,0.5475938658806525,0.6027533801842009,0.6567258536230427,0.7020786115886906,0.7556955304790476,0.8108386213481831,0.861877919645103,0.9087938518762235,0.9513111047825205,0.9466202488285407,0.8982664193780558,0.843123733525335,0.7885325163759136,0.742587103177053,0.6901786222483901,0.6350165874842242,0.5798497506956779,0.5246829139071321,0.46951607711858623,0.41434924033004084,0.35918240354149455,0.30401699131684046,0.2503800786467214,0.21805457204999157,0.2442807544071628,0.28857342305588984,0.336064261347258,0.381377026293507,0.42031099303096786,0.42972942249182333,0.4350787945666892,0.4421879590055333,0.4390682039035392,0.4189790481181892,0.395873446408463,0.3774432030696313,0.36054750058095353,0.3697508100025888,0.3898690569698062,0.3921052976614008,0.39052596853146415,0.3812590192855656,0.3893761993944014,0.39252716117244635,0.4020580049014977,0.41479320491723604,0.42065844931560203,0.42944053094164847,0.4280747697209537,0.42375182819905666,0.4110402306944074,0.37874323998428405,0.3499406713036577,0.31619992735737634,0.2793914637766144,0.23959811442430823,0.19841879963904785,0.16073243365046852,0.1218563091892646,0.08280229759311508,0.04798673209768567,0.0586152222510119,0.09089688446028887,0.12130832044263151,0.15437295439206133,0.1900456841649052,0.22715208715837676,0.2660772616602669,0.2950496306638484,0.322521176687526,0.3452683209275005,0.3638170427230736,0.3848665494070884,0.40004030439934724,0.41486305781541066,0.43384695135997875,0.46776846123822,0.5122962315290152,0.5575127364321331,0.6101493573747363,0.6653090916136493,0.7204759284021951,0.7756427651907414,0.8307530526918594,0.8801839467218948,0.9286534594884737,0.9769679792058508,0.9885204231085742,0.9529917007338153,0.900482230831051,0.8550419598533279,0.8007630306442852,0.7455965415826933,0.6904297047941466,0.6352628680056012,0.5800960312170549,0.5249291944285095,0.46977161176751636,0.4174373224952199,0.37148029311601816,0.316822056501028,0.26165531707602874,0.2065781387361627,0.1681178336649789,0.2029934536172926,0.2483089244302641,0.29352308547067363,0.34287870720326685,0.3871658829350344,0.4224555781950228,0.4239666531839643,0.42877752928960255,0.4329479597477217,0.43895527668529777,0.41926154550159067,0.39374824408188625,0.37714766019602086,0.36077545438804925,0.3591041980729055,0.37789995371381835,0.38950103385013657,0.3815349134814867,0.37955539657991944,0.3813322118407756,0.3912006115817701,0.3981261606583022,0.404586580965022,0.40463077877405906,0.39985764395329193,0.391788832115489,0.380263432044206,0.35650472480060147,0.322525506054145,0.28589711202056645,0.2503842646497638,0.2100835798717393,0.1696237789406052,0.1287249565154318,0.0900678442594367,0.04875529472579787,0.01051740558445613,0.0,0.028376766321577485,0.061444835856291125,0.09716498076282254,0.12768717093589155,0.1629552541740289,0.19903070747103668,0.23437613394136192,0.2683721419612519,0.2959529605691933,0.31960141699450473,0.34420235024757373,0.36687725891694667,0.4008555374267173,0.42764862174120655,0.4407617441618954,0.46476541556239415,0.5009503562346795,0.5450684051847232,0.5945992303443028,0.6434401194990929,0.6924738809458582,0.7475639887934591,0.800849024346618,0.8462563801619507,0.9005076271431585,0.9556182099140926,1.0,0.9939136865857985,0.9628429184150789,0.9204859741802012,0.8665198185794347,0.8113534407904686,0.7561866040019227,0.7010197672133773,0.6458529304248315,0.5906998899838927,0.5393212301535812,0.49260190773682666,0.43774588986089613,0.3825790530723503,0.32741221628380446,0.27224537949525907,0.21708027601732205,0.16507342029540628,0.17161276717488372,0.2232959665001364,0.26862932842071485,0.31667884613644137,0.3634336706800525,0.407602869250284,0.45008507418918375,0.47715281813883426,0.47329370807116966,0.4773332119539808,0.4797789420887302,0.46621017886392657,0.43670686881291854,0.4161254059781241,0.39702772587225743,0.38601347539276887,0.3928275923046143,0.4120043393109132,0.41718735062510204,0.4161132891012076,0.406223071284451,0.4052640428422194,0.41466064207538844,0.41734340247823454,0.4242009096419581,0.4297315681767988,0.4295165236973273,0.4212695968108551,0.41239183213745845,0.39085160124209484,0.3588488594678889,0.3253645714589619,0.28929469847223377,0.24921567831889124,0.20785753966016496,0.16695238590229478,0.13351056278738782,0.10460181282293157,0.06610483685983581,0.0362430767891726,0.04917995520486107,0.08061625655581284,0.11407604129703386,0.1561911975212915,0.19733120028048234,0.22379482578411025,0.2502429835570048,0.2865336988988729,0.31450687394344534,0.34150893980254793,0.3596682126723105,0.38107081155305256,0.40187804379496184,0.41487887232513243
0,1,2,3,4,5,6,7,8,9,10,11,12,13,14,15,16,17,18,19,20,21,22,23,24,25,26,27,28,29,30,31,32,33,34,35,36,37,38,39,40,41,42,43,44,45,46,47,48,49,50,51,52,53,54,55,56,57,58,59,60,61,62,63,64,65,66,67,68,69,70,71,72,73,74,75,76,77,78,79,80,81,82,83,84,85,86,87,88,89,90,91,92,93,94,95,96,97,98,99,100,101,102,103,104,105,106,107,108,109,110,111,112,113,114,115,116,117,118,119,120,121,122,123,124,125,126,127,128,129,130,131,132,133,134,135,136,137,138,139,140,141,142,143,144,145,146,147,148,149,150,151,152,153,154,155,156,157,158,159,160,161,162,163,164,165,166,167,168,169,170,171,172,173,174,175,176,177,178,179,180,181,182,183,184,185,186,187,188,189,190,191,192,193,194,195,196,197,198,199,200,201,202,203,204,205,206,207,208,209,210,211,212,213,214,215,216,217,218,219,220,221,222,223,224,225,226,227,228,229,230,231,232,233,234,235,236,237,238,239,240,241,242,243,244,245,246,247,248,249,250,251,252,253,254
0.22891783659979814,0.22891783659979814,0.22891783659979814,0.22891783659979814,0.22916933965743946,0.23471884861842374,0.2316730247245662,0.22893022298588983,0.22891783659979814,0.22891783659979814,0.22891309145183514,0.2269910858183588,0.2210190116017472,0.2162567361434402,0.2112306421533967,0.2048001854054493,0.19883877603591338,0.19534282620239463,0.19000551515537922,0.1961564531406188,0.20358211722142205,0.21139863287840632,0.2127076824945029,0.21209789338004925,0.20194266804006866,0.18807250376676432,0.16679604188133323,0.14499748902103193,0.12258174402693411,0.1003385290280614,0.07811355608144432,0.054093584935801076,0.033924742621703086,0.011980378160283633,0.0,0.009916379714860923,0.026736825761731975,0.0447860091685397,0.06496106752072661,0.08583103718251883,0.10732923850167042,0.12453742413753544,0.14125005453305972,0.1538074143676451,0.16515987256607678,0.17302555386542573,0.18100409538673845,0.18853204226255516,0.1955997367020077,0.20247367516238346,0.2077078184376795,0.2240249273520063,0.24813007122967767,0.2755340414952323,0.30637559407828086,0.3342427230788583,0.36790653521438865,0.4018966203317895,0.43021459134122475,0.4543645196510844,0.4807849951094092,0.5148865269256124,0.5481666826734237,0.5760146465634002,0.6095593099191583,0.6438174763427615,0.678075973653697,0.711983066619388,0.7401301511563259,0.7727514323699514,0.80700614396025,0.8412526811810896,0.8728184675590285,0.9018286363113388,0.9359363142668027,0.9698970418477981,0.9966149678352654,1.0,0.9740980248680149,0.9437701040259476,0.9095591781183092,0.8753006808073738,0.8410438776655029,0.8079654824110738,0.7800045504085553,0.7463704260189494,0.7121120131898857,0.6778535158789503,0.6435950185680155,0.6093368630957654,0.575821679056054,0.5479665910508724,0.514664112956281,0.4804063509505272,0.446147853639592,0.41188935632865675,0.37763085901772153,0.34337263157943276,0.3097217271066237,0.2818554539290119,0.2486996655418312,0.21444219140023302,0.18018369408929802,0.1459251967783628,0.11166894865913335,0.08024954623674807,0.08760428296954914,0.1152582323976612,0.14716789479538583,0.17514375788142678,0.20594375106374607,0.2315741794287458,0.2473645193059848,0.2530924586439087,0.2532292934113616,0.2531992264302323,0.24912965745966753,0.23805261033631608,0.2314540497199502,0.21769436347093918,0.2201699991450332,0.2256998099926799,0.22889288946525,0.2297947120063415,0.23617267804350472,0.23702127458632272,0.237007709602004,0.23443334021011464,0.2300816403473378,0.23568827495787903,0.2299797053592052,0.22891877841622166,0.22891783659979814,0.22891783659979814,0.2288673906752683,0.224847052873965,0.21962354927311956,0.2132896148396095,0.21201768547563704,0.201735805657137,0.19656145946333003,0.19746701455807858,0.20645883901673212,0.21607516377264213,0.2326475963637653,0.24465330014640974,0.24452459038484808,0.23389629615735208,0.21684515223077483,0.1983081322812117,0.1800822006138163,0.15782137406553653,0.13499320904112677,0.11214540428799014,0.08933474001635755,0.06869988355680023,0.05147133118823888,0.03886244483885837,0.05069222936531603,0.07098278422831306,0.08834046520712624,0.10546968973921711,0.12259964957648872,0.14044104680780856,0.1598714912565875,0.17201492866380153,0.18158323269414023,0.18891021066567015,0.19566193952893074,0.19650218302934253,0.1965025608510469,0.1967586135398227,0.20606647931683164,0.23047127373049237,0.2562997271815357,0.2855912533849583,0.31391251032004197,0.347820175660877,0.38071837520407037,0.40873367013567585,0.44249336776571013,0.4767516875082658,0.5110084558330112,0.5436999674470739,0.571857744682787,0.6056819806264295,0.6399403551257539,0.6740615222791657,0.7031589256313768,0.7346299585920399,0.7688705254323076,0.8031266543130589,0.835747808099863,0.8639544364112703,0.897800799776721,0.9320591930497955,0.9661312306316745,0.9882990151769491,0.9752478736036654,0.9481406831398642,0.9152780909635951,0.8810210235865652,0.8467625262756298,0.8126554186237509,0.7836505960071265,0.7520789464769164,0.7178323559690769,0.6835738586581417,0.6493153613472062,0.615058001737486,0.581857988985963,0.5539265711750092,0.5203849250792048,0.4861266937297182,0.4518681964187836,0.4176096991078482,0.38335120179691295,0.3490927044859775,0.31484578729196055,0.2830364058695507,0.2542230469796489,0.22016253417942466,0.18590403686848944,0.151645539557554,0.11738704224661856,0.08312854493568422,0.04893441861699421,0.027563542237209138,0.05209632172661216,0.07997255061559194,0.11288243643798368,0.1409713187529371,0.17346359217559604,0.2021599586566436,0.22823496537693755,0.2369556006385385,0.24217814484685318,0.2451049291519627,0.2449797878509672,0.23975416843336483,0.23291384203116938,0.22183067137977885,0.213459207305722,0.21825758691833919,0.22966324951741246,0.23672342180304828,0.24220193968390635,0.23853247678356015,0.23826652741029486,0.24458958689896426,0.24512526561621284,0.24512547447417377,0.2449529835824773,0.2394914203638796,0.23534920956607652
0,1,2,3,4,5,6,7,8,9,10,11,12,13,14,15,16,17,18,19,20,21,22,23,24,25,26,27,28,29,30,31,32,33,34,35,36,37,38,39,40,41,42,43,44,45,46,47,48,49,50,51,52,53,54,55,56,57,58,59,60,61,62,63,64,65,66,67,68,69,70,71,72,73,74,75,76,77,78,79,80,81,82,83,84,85,86,87,88,89,90,91,92,93,94,95,96,97,98,99,100,101,102,103,104,105,106,107,108,109,110,111,112,113,114,115,116,117,118,119,120,121,122,123,124,125,126,127,128,129,130,131,132,133,134,135,136,137,138,139,140,141,142,143,144,145,146,147,148,149,150,151,152,153,154,155,156,157,158,159,160,161,162,163,164,165,166,167,168,169,170,171,172,173,174,175,176,177,178,179,180,181,182,183,184,185,186,187,188,189,190,191,192,193,194,195,196,197,198,199,200,201,202,203,204,205,206,207,208,209,210,211,212,213,214,215,216,217,218,219,220,221,222,223,224,225,226,227,228,229,230,231,232,233,234,235,236,237,238,239,240,241,242,243,244,245,246,247,248,249,250,251,252,253,254
