0,1,2,3,4,5,6,7,8,9,10,11,12,13,14,15,16,17,18,19,20,21,22,23,24,25,26,27,28,29,30,31,32,33,34,35,36,37,38,39,40,41,42,43,44,45,46,47,48,49,50,51,52,53,54,55,56,57,58,59,60,61,62,63,64,65,66,67,68,69,70,71,72,73,74,75,76,77,78,79,80,81,82,83,84,85,86,87,88,89,90,91,92,93,94,95,96,97,98,99,100,101,102,103,104,105,106,107,108,109,110,111,112,113,114,115,116,117,118,119,120,121,122,123,124,125,126,127,128,129,130,131,132,133,134,135,136,137,138,139,140,141,142,143,144,145,146,147,148,149,150,151,152,153,154,155,156,157,158,159,160,161,162,163,164,165,166,167,168,169,170,171,172,173,174,175,176,177,178,179,180,181,182,183,184,185,186,187,188,189,190,191,192,193,194,195,196,197,198,199,200,201,202,203,204,205,206,207,208,209,210,211,212,213,214,215,216,217,218,219,220,221,222,223,224,225,226,227,228,229,230,231,232,233,234,235,236,237,238,239,240,241,242,243,244,245,246,247,248,249,250,251,252,253,254
0.8444961222870454,0.843880961702899,0.8483702216147139,0.8617397363962399,0.883977352660405,0.8678971124722924,0.8306813177882447,0.8088201963912428,0.8058247070618872,0.8054826425151812,0.7958695128735104,0.7743056454574088,0.7814836646365019,0.7970626927291254,0.7788974868164525,0.7148899021082183,0.6455709123790027,0.5751267970331463,0.5042663483183388,0.4300049344193074,0.35857717129041855,0.28698292316688223,0.2169551528557624,0.1647482363234295,0.1988121222262752,0.26942869200530106,0.3444844866047124,0.42235192658011045,0.49625701294772606,0.5695402535483335,0.646073695384274,0.7172839483161705,0.7882714833518124,0.8311743699124813,0.8369361312060043,0.8283028746692856,0.8362727637856046,0.8564976746965743,0.8663825532643245,0.83377715798679,0.7988079190114513,0.7755976835104953,0.7676359665988083,0.7601954878163443,0.7423138877612202,0.7129660577788536,0.7118452005229524,0.7151354931375274,0.6860261456307878,0.6293937944123161,0.5680840299373678,0.4972152166941318,0.42690718240454417,0.3552204510526459,0.2812503787067775,0.20842544819815778,0.13066840064506424,0.05555129942569226,0.0,0.025297835050022366,0.09610411128966467,0.16999206256622934,0.24788733050286038,0.3243633789924715,0.3957570664335276,0.472830610141323,0.5486964869148582,0.6202162626555922,0.6926699350267745,0.7620616688326901,0.8284674648103806,0.8734360147950307,0.8943998451709626,0.9097643241875769,0.9288642013576621,0.9566439117369049,0.9685956928576064,0.9345600964670794,0.8978379526962049,0.8730938288708202,0.8630636174326826,0.8597067154185959,0.8427809842112356,0.8219977382938076,0.8232372785640197,0.8336656975590059,0.8065961550735278,0.7427466511529249,0.6740277119255501,0.6039540679046936,0.5274823554145412,0.44967646202561606,0.37875870065124373,0.31837761465510306,0.249672439632739,0.17826295307452,0.1328009635435693,0.17388329863590635,0.24787651284530743,0.31990839696411333,0.39750419321067054,0.4746668585411252,0.5460903517870012,0.6223608911788475,0.6961070689367465,0.7694332452370355,0.8351458130095532,0.8468055518595715,0.8420593180453905,0.8424901277719891,0.8516057493874521,0.8451059137205895,0.8085359236791699,0.7809279435611732,0.7650569859092778,0.7656938873177795,0.7972809330615552,0.8118379968595205,0.7945149245865625,0.796254689451264,0.8151328708405964,0.8239035441634744,0.7688297528951503,0.6957042052578447,0.6225272359736159,0.5495028642880938,0.4783246756522842,0.4065397923222226,0.33401269681092616,0.26304308940387733,0.19940045501008696,0.2038179239458069,0.26916665532375006,0.3461444852720682,0.41808845303358144,0.4935543526860665,0.5715228847029502,0.6495120333214534,0.7270140351956828,0.7986245296185893,0.8532892736170535,0.8192788439120763,0.7471162825804004,0.6745158769561698,0.6132772471890392,0.5524135816688461,0.4902063414454415,0.45229086805947694,0.5056691180535556,0.5768272148942225,0.650313402487337,0.7190286706003622,0.787131695443895,0.8489463161691294,0.8634872921558493,0.8366536662911898,0.81854904894964,0.8304404708113838,0.8482476392852817,0.8249335663790481,0.7906926989931587,0.7933338919587695,0.8138306796376965,0.8487510706071765,0.8811620376880854,0.8786843724984618,0.8652470992382978,0.8638805798961403,0.8696542822965353,0.8669781713129677,0.8229914682332539,0.7513083275113274,0.6796964884609306,0.6027001757195084,0.5306882357773234,0.45816014020032425,0.44412493394459107,0.5127479766661839,0.5844062573711034,0.6545925043967832,0.7233015002649265,0.7852425056437443,0.8414350844078503,0.861501723832034,0.8544836365621283,0.8472134687220262,0.8701438966836014,0.883286342809457,0.8905543231636411,0.9043652536473236,0.9350369163535818,0.9738520357027646,0.9999999999999999,0.9902952409543168,0.9611720136253717,0.9412066382319731,0.9237072553324878,0.910789972899838,0.8720086407814079,0.8156208334879317,0.7507477142540046,0.6808455639012104,0.6073265568667386,0.5351150970752444,0.4585623109911149,0.3872465628064744,0.31935539138744684,0.33303112542849667,0.40302037347280695,0.4748749531509552,0.55210865838773,0.6239414736006311,0.6896909586565009,0.7328757669859273,0.7448222878151206,0.7395317560799913,0.7527947598494437,0.7782095293536065,0.7887897583363775,0.7943155505548777,0.8112646034262451,0.8402759110164283,0.880017580439672,0.9022298970580683,0.8841112975743827,0.8658167113909688,0.8582313189826883,0.8628750778543303,0.8564473396920792,0.8180839016431701,0.7485474192373572,0.6773356165858512,0.6006983672472309,0.5227234737693088,0.4506998300520221,0.4544039587248875,0.5231534859672323,0.5937149739894051,0.6632704021235248,0.733443064500446,0.7989969600367833,0.8259358948867653,0.8207536996418586,0.8009400777777987,0.8129101023274415,0.8267225088796942,0.8274568231656593,0.828937636719531,0.8485392444049468,0.8827233317438617,0.9117394947632703,0.9018315130697397,0.8783024192586341,0.8726311831187313,0.872551759721712
0,1,2,3,4,5,6,7,8,9,10,11,12,13,14,15,16,17,18,19,20,21,22,23,24,25,26,27,28,29,30,31,32,33,34,35,36,37,38,39,40,41,42,43,44,45,46,47,48,49,50,51,52,53,54,55,56,57,58,59,60,61,62,63,64,65,66,67,68,69,70,71,72,73,74,75,76,77,78,79,80,81,82,83,84,85,86,87,88,89,90,91,92,93,94,95,96,97,98,99,100,101,102,103,104,105,106,107,108,109,110,111,112,113,114,115,116,117,118,119,120,121,122,123,124,125,126,127,128,129,130,131,132,133,134,135,136,137,138,139,140,141,142,143,144,145,146,147,148,149,150,151,152,153,154,155,156,157,158,159,160,161,162,163,164,165,166,167,168,169,170,171,172,173,174,175,176,177,178,179,180,181,182,183,184,185,186,187,188,189,190,191,192,193,194,195,196,197,198,199,200,201,202,203,204,205,206,207,208,209,210,211,212,213,214,215,216,217,218,219,220,221,222,223,224,225,226,227,228,229,230,231,232,233,234,235,236,237,238,239,240,241,242,243,244,245,246,247,248,249,250,251,252,253,254
0.8081670066117386,0.8031231277612882,0.8082508728755398,0.8107798186611819,0.8097198740230958,0.8089099157374007,0.8193344665158266,0.8225066607941904,0.815862368019866,0.816828795064444,0.7885699530580796,0.7024485795341,0.6194134589577867,0.5299245684427492,0.4456683502475238,0.357713461034354,0.27151450556393586,0.1896207289427676,0.15936294189683053,0.21855843194817748,0.3072150433600107,0.3976403435838478,0.48046669847663437,0.5714210117569858,0.6636009748169391,0.7498455726293367,0.8132849005313287,0.7946937124210256,0.777170277405596,0.7580123827606984,0.7309484836064717,0.7105966122904934,0.6979679966510035,0.6923676200170894,0.7192529968951742,0.7634150918222435,0.7996589817739304,0.8008109393471428,0.7814587864802365,0.7908538945629544,0.8066405585410508,0.8001226583073817,0.7999502577583482,0.81867516553388,0.8391358714044694,0.8311002389660807,0.7657089056288535,0.6857614916421044,0.597365161293445,0.5144600868867788,0.4242990475461941,0.33621137724865413,0.2524181480913601,0.18594428347084246,0.2182943839569227,0.3040000809522825,0.3923236247415314,0.47632977056835735,0.5681859751845748,0.6600265965079939,0.7440739850898848,0.8308407960143669,0.8682067497919379,0.8322715340899725,0.8030218339600583,0.7704630940193511,0.7435623568844079,0.7116720619740524,0.6801659935081357,0.6718849269026657,0.6941721281811064,0.7419043120976061,0.7908768524613932,0.8203113283475922,0.8083443981014395,0.8041239273657517,0.8169016836471388,0.8277723255635945,0.8157024658110246,0.7816272908123392,0.6986723332225993,0.6066528993010776,0.5209559367320438,0.4344985381450748,0.3467864339673219,0.26331626103678984,0.2001161365503965,0.2297327930530646,0.30929744280767046,0.39866978555511534,0.490945126697238,0.5808691134047468,0.6638955164787435,0.755037319485911,0.8409118482718088,0.9014115274017114,0.868990871940426,0.8244600502540929,0.7865661675281055,0.7581259022981583,0.7405025639748979,0.7083067655451296,0.6755427417566271,0.6804481706219574,0.7207681652768956,0.7717580617011912,0.8052794587713084,0.8104851584064086,0.8107373796643393,0.7877271189950388,0.7729841901430021,0.793577613977684,0.8261703207011839,0.8457906119334953,0.8309032929511753,0.8098229858044446,0.8148697500040509,0.8271988926911347,0.8221899785681732,0.7952865404583298,0.8024505248244507,0.8327565748410952,0.830747193987522,0.8170905832736304,0.8070253034265333,0.7616360256112358,0.6798733548640798,0.5957974407746813,0.5053106233614912,0.422489327376502,0.33214266906363976,0.24592431358973443,0.1599539470458451,0.06955683259674905,0.0,0.019934501844057095,0.10808563395110782,0.20000493899080185,0.28438894763828726,0.37234277897269874,0.4645975287283337,0.5568628951027359,0.6391637505219137,0.6248005795281781,0.5567424406571824,0.5977977019984875,0.6838220020013017,0.7492179326863473,0.819993123791124,0.8513878940476458,0.8500033547134127,0.8664309054390154,0.881528203195898,0.867022045998801,0.8377640044551156,0.8473154103524527,0.8597033246179355,0.8650125771159629,0.8524456155939004,0.858044581500043,0.8783990280055425,0.877919948016441,0.8567595712809484,0.825268673085082,0.8217961318336997,0.8397387605924533,0.8459470608955726,0.8439635776793126,0.8202953487145235,0.7749287868205468,0.7300819903297568,0.7234316162969427,0.7577930805024604,0.7842278490822114,0.8043141732944774,0.8360385377599233,0.8831696428186062,0.9317879916025256,0.9943035724663949,1.0000000000000002,0.9283492372961664,0.8463417915443825,0.7571553358980261,0.6770046336724398,0.6969237780525945,0.7748072539788711,0.847899105151692,0.8682226293665802,0.8595953104204923,0.8649787037922441,0.8499504973299958,0.847440892806002,0.8632739293987848,0.8573790787306772,0.8262466994825639,0.7769641826108395,0.7280642233631827,0.7175388161274412,0.7406969522359848,0.7732592952516202,0.8021731341609757,0.8321335476270202,0.8653012799591331,0.9101729446951945,0.9696859938279874,0.9769060202125581,0.908635166484576,0.8209668487188664,0.728715793737021,0.6364942629322958,0.5616333562555256,0.5970718974650073,0.6800668145160136,0.7616821493365389,0.8364150120636638,0.8779087689174923,0.8747938308289573,0.8546989652769892,0.8371090847856364,0.843089122687948,0.8381536710134754,0.8230397466168473,0.8314269574700621,0.8433686209256555,0.8217660767038211,0.7826492494333637,0.7384846123932889,0.7289208380163619,0.7410205378037784,0.7613472421960228,0.7884195920185657,0.8077055019846411,0.8291193089923323,0.8797666208731447,0.9336578062989884,0.9040482129396594,0.822746373568221,0.739644747906467,0.6482654722145988,0.5721844082874876,0.6037616026316801,0.6887706353897405,0.7709250096771945,0.8420833693776049,0.8570295609561411,0.8467415265168461,0.8549074104537955,0.8615165384394843,0.8496363975282619,0.8478502613819796,0.8517065156207744,0.8523310507334629,0.8401565175550056,0.8391807315150459,0.8466620226896839
0,1,2,3,4,5,6,7,8,9,10,11,12,13,14,15,16,17,18,19,20,21,22,23,24,25,26,27,28,29,30,31,32,33,34,35,36,37,38,39,40,41,42,43,44,45,46,47,48,49,50,51,52,53,54,55,56,57,58,59,60,61,62,63,64,65,66,67,68,69,70,71,72,73,74,75,76,77,78,79,80,81,82,83,84,85,86,87,88,89,90,91,92,93,94,95,96,97,98,99,100,101,102,103,104,105,106,107,108,109,110,111,112,113,114,115,116,117,118,119,120,121,122,123,124,125,126,127,128,129,130,131,132,133,134,135,136,137,138,139,140,141,142,143,144,145,146,147,148,149,150,151,152,153,154,155,156,157,158,159,160,161,162,163,164,165,166,167,168,169,170,171,172,173,174,175,176,177,178,179,180,181,182,183,184,185,186,187,188,189,190,191,192,193,194,195,196,197,198,199,200,201,202,203,204,205,206,207,208,209,210,211,212,213,214,215,216,217,218,219,220,221,222,223,224,225,226,227,228,229,230,231,232,233,234,235,236,237,238,239,240,241,242,243,244,245,246,247,248,249,250,251,252,253,254
0.77406260351895,0.731648120606837,0.6790315832320821,0.6264833352938093,0.604717263193715,0.616021334361087,0.6263902478937717,0.6311364994938418,0.6388278543472292,0.6534527651481101,0.6440884749518052,0.6000173512716167,0.560380778028321,0.5358469685715097,0.5369984524605658,0.5552475805695327,0.5536719268105414,0.5487357049261103,0.5607824291069778,0.5614112914071974,0.5597585417038429,0.5614417708573953,0.54761178037536,0.545335876200786,0.5464568754691175,0.5491770909659681,0.5385890537631719,0.5201867504858027,0.5115846169302412,0.5136050292893839,0.520568945037676,0.5317157248873239,0.5140749919833942,0.47332302735641774,0.41255438040051606,0.34374977116293315,0.27313503771437353,0.19501785568108354,0.11948084669112946,0.05301248900796929,0.02455477124142269,0.058203734620720704,0.12985283349989984,0.2061360361643978,0.2754618669638458,0.35293602226051046,0.43139563339063836,0.5098546328671569,0.5871412108327074,0.6563746853425634,0.7329757895245568,0.8095245372317537,0.8286868600111152,0.7748494024838857,0.7174002372853379,0.6722301901591468,0.6216661110164583,0.5731120559038436,0.5410713319158289,0.5301599828040844,0.5387096248004946,0.5511491279085552,0.566445027504179,0.5851498325112312,0.5831784032634675,0.5465653105212784,0.5037857583490062,0.4825669486053803,0.4988618444588071,0.5125711043621219,0.5158291302779958,0.5195437160148391,0.5340135419918235,0.5489309731269987,0.565363850770982,0.5675459625840424,0.5620094379367522,0.5594210090572298,0.5608124358022002,0.5522722957627162,0.5423801745377645,0.5403729929496921,0.5431984307683655,0.5585792269645371,0.5681049451931439,0.5479697882085979,0.4869241571528393,0.4175804656303084,0.3397534656171086,0.2613721352714069,0.18833794298121642,0.11648769933181824,0.04239782063242847,0.0,0.03450132431200803,0.10536251118121509,0.18363925328662778,0.2595108032279039,0.3290793649745798,0.4067659104073187,0.48522614196963065,0.5636862700043144,0.6413871242218361,0.7109574340126359,0.7867217364896251,0.8475958482535211,0.8165113653103255,0.7636004407703834,0.7210619519915336,0.6689713250571991,0.6135555387129037,0.5827504847842364,0.5762415148408648,0.5763287051819439,0.5888533898530885,0.5970856091302179,0.6106213790183268,0.5916169298878982,0.5542388148082857,0.5155543215577489,0.493277916609,0.5046378868516357,0.5180403754617651,0.5280983767904031,0.5320857892636417,0.5347249514861663,0.5351202305386946,0.5427876743699709,0.5494166605021655,0.5626217548590138,0.5648827605555489,0.5651270986464356,0.5745302880882772,0.608441375985626,0.6228458894906754,0.6109165152235823,0.6009698732140765,0.6032819943077892,0.5965428323584747,0.5876038545393689,0.5875970055161892,0.5883049371663052,0.5770269665368672,0.5734017836979552,0.5667415654888985,0.5653237435690526,0.5515866185054981,0.5379701248191864,0.5644768087795209,0.6064879674270618,0.6401520839909589,0.6540143617904739,0.6410995477980423,0.6234576041273143,0.6172199649806192,0.6161718828499014,0.6268297526339619,0.6759628190977371,0.7334125051121585,0.7781707864488185,0.8234087037625859,0.8816803180858745,0.9425814361783187,0.9630896234952762,0.911036503265598,0.8366137779709379,0.7627705789997064,0.6916748384790015,0.6134764868057248,0.5350163664891812,0.45814370958533956,0.43527741132326137,0.495322727110278,0.5596981101074949,0.6050656161835077,0.6075156527293821,0.5952333802682259,0.5797904628653445,0.5754965815738646,0.5834577881955474,0.5934410237107295,0.6003407333039317,0.5994724555802577,0.6063189995692191,0.6063617916386173,0.5979130389454077,0.5835325895906001,0.5715759926216315,0.5580631707062131,0.5569739056715866,0.5447792520518371,0.5306790452647623,0.5361192707617513,0.5783603185622976,0.6158870972001933,0.6292921109686176,0.6138855131458565,0.594670590684035,0.5799575280155305,0.5720981882005638,0.5832552901798504,0.6188048999554245,0.671935992096427,0.7205676671498147,0.7683078737732678,0.8249435594743468,0.890341796031141,0.9610022256554849,0.9999999999999998,0.9641939629790117,0.896626148696692,0.8216088062611806,0.7434199433038742,0.6721907129070821,0.5984588303975651,0.5200548177615758,0.4417331762051553,0.3830939559414983,0.419618997446666,0.48524419652134276,0.5409717197637327,0.5625045792039838,0.567961661037778,0.565313389928124,0.5562058839663295,0.5636023473100604,0.5663770022329,0.5807227913556237,0.5950247976729297,0.5974593083282371,0.5911068822375334,0.5860472973880586,0.5941913361781392,0.6034631469471246,0.599537291786101,0.6054933262539344,0.598936817362749,0.595191452362003,0.6013736775332521,0.582767791010103,0.5757475796634768,0.603727759933639,0.6441183643871182,0.6831382536110293,0.6892468736778248,0.6739398489209003,0.6670193119751746,0.6614940299690242,0.6518607808755197,0.6431222758451189,0.6804773982303074,0.732240762345963,0.7786855641246888,0.8261120905703423,0.8771409366943097
0,1,2,3,4,5,6,7,8,9,10,11,12,13,14,15,16,17,18,19,20,21,22,23,24,25,26,27,28,29,30,31,32,33,34,35,36,37,38,39,40,41,42,43,44,45,46,47,48,49,50,51,52,53,54,55,56,57,58,59,60,61,62,63,64,65,66,67,68,69,70,71,72,73,74,75,76,77,78,79,80,81,82,83,84,85,86,87,88,89,90,91,92,93,94,95,96,97,98,99,100,101,102,103,104,105,106,107,108,109,110,111,112,113,114,115,116,117,118,119,120,121,122,123,124,125,126,127,128,129,130,131,132,133,134,135,136,137,138,139,140,141,142,143,144,145,146,147,148,149,150,151,152,153,154,155,156,157,158,159,160,161,162,163,164,165,166,167,168,169,170,171,172,173,174,175,176,177,178,179,180,181,182,183,184,185,186,187,188,189,190,191,192,193,194,195,196,197,198,199,200,201,202,203,204,205,206,207,208,209,210,211,212,213,214,215,216,217,218,219,220,221,222,223,224,225,226,227,228,229,230,231,232,233,234,235,236,237,238,239,240,241,242,243,244,245,246,247,248,249,250,251,252,253,254
0.77406260351895,0.731648120606837,0.6790315832320821,0.6264833352938093,0.604717263193715,0.616021334361087,0.6263902478937717,0.6311364994938418,0.6388278543472292,0.6534527651481101,0.6440884749518052,0.6000173512716167,0.560380778028321,0.5358469685715097,0.5369984524605658,0.5552475805695327,0.5536719268105414,0.5487357049261103,0.5607824291069778,0.5614112914071974,0.5597585417038429,0.5614417708573953,0.54761178037536,0.545335876200786,0.5464568754691175,0.5491770909659681,0.5385890537631719,0.5201867504858027,0.5115846169302412,0.5136050292893839,0.520568945037676,0.5317157248873239,0.5140749919833942,0.47332302735641774,0.41255438040051606,0.34374977116293315,0.27313503771437353,0.19501785568108354,0.11948084669112946,0.05301248900796929,0.02455477124142269,0.058203734620720704,0.12985283349989984,0.2061360361643978,0.2754618669638458,0.35293602226051046,0.43139563339063836,0.5098546328671569,0.5871412108327074,0.6563746853425634,0.7329757895245568,0.8095245372317537,0.8286868600111152,0.7748494024838857,0.7174002372853379,0.6722301901591468,0.6216661110164583,0.5731120559038436,0.5410713319158289,0.5301599828040844,0.5387096248004946,0.5511491279085552,0.566445027504179,0.5851498325112312,0.5831784032634675,0.5465653105212784,0.5037857583490062,0.4825669486053803,0.4988618444588071,0.5125711043621219,0.5158291302779958,0.5195437160148391,0.5340135419918235,0.5489309731269987,0.565363850770982,0.5675459625840424,0.5620094379367522,0.5594210090572298,0.5608124358022002,0.5522722957627162,0.5423801745377645,0.5403729929496921,0.5431984307683655,0.5585792269645371,0.5681049451931439,0.5479697882085979,0.4869241571528393,0.4175804656303084,0.3397534656171086,0.2613721352714069,0.18833794298121642,0.11648769933181824,0.04239782063242847,0.0,0.03450132431200803,0.10536251118121509,0.18363925328662778,0.2595108032279039,0.3290793649745798,0.4067659104073187,0.48522614196963065,0.5636862700043144,0.6413871242218361,0.7109574340126359,0.7867217364896251,0.8475958482535211,0.8165113653103255,0.7636004407703834,0.7210619519915336,0.6689713250571991,0.6135555387129037,0.5827504847842364,0.5762415148408648,0.5763287051819439,0.5888533898530885,0.5970856091302179,0.6106213790183268,0.5916169298878982,0.5542388148082857,0.5155543215577489,0.493277916609,0.5046378868516357,0.5180403754617651,0.5280983767904031,0.5320857892636417,0.5347249514861663,0.5351202305386946,0.5427876743699709,0.5494166605021655,0.5626217548590138,0.5648827605555489,0.5651270986464356,0.5745302880882772,0.608441375985626,0.6228458894906754,0.6109165152235823,0.6009698732140765,0.6032819943077892,0.5965428323584747,0.5876038545393689,0.5875970055161892,0.5883049371663052,0.5770269665368672,0.5734017836979552,0.5667415654888985,0.5653237435690526,0.5515866185054981,0.5379701248191864,0.5644768087795209,0.6064879674270618,0.6401520839909589,0.6540143617904739,0.6410995477980423,0.6234576041273143,0.6172199649806192,0.6161718828499014,0.6268297526339619,0.6759628190977371,0.7334125051121585,0.7781707864488185,0.8234087037625859,0.8816803180858745,0.9425814361783187,0.9630896234952762,0.911036503265598,0.8366137779709379,0.7627705789997064,0.6916748384790015,0.6134764868057248,0.5350163664891812,0.45814370958533956,0.43527741132326137,0.495322727110278,0.5596981101074949,0.6050656161835077,0.6075156527293821,0.5952333802682259,0.5797904628653445,0.5754965815738646,0.5834577881955474,0.5934410237107295,0.6003407333039317,0.5994724555802577,0.6063189995692191,0.6063617916386173,0.5979130389454077,0.5835325895906001,0.5715759926216315,0.5580631707062131,0.5569739056715866,0.5447792520518371,0.5306790452647623,0.5361192707617513,0.5783603185622976,0.6158870972001933,0.6292921109686176,0.6138855131458565,0.594670590684035,0.5799575280155305,0.5720981882005638,0.5832552901798504,0.6188048999554245,0.671935992096427,0.7205676671498147,0.7683078737732678,0.8249435594743468,0.890341796031141,0.9610022256554849,0.9999999999999998,0.9641939629790117,0.896626148696692,0.8216088062611806,0.7434199433038742,0.6721907129070821,0.5984588303975651,0.5200548177615758,0.4417331762051553,0.3830939559414983,0.419618997446666,0.48524419652134276,0.5409717197637327,0.5625045792039838,0.567961661037778,0.565313389928124,0.5562058839663295,0.5636023473100604,0.5663770022329,0.5807227913556237,0.5950247976729297,0.5974593083282371,0.5911068822375334,0.5860472973880586,0.5941913361781392,0.6034631469471246,0.599537291786101,0.6054933262539344,0.598936817362749,0.595191452362003,0.6013736775332521,0.582767791010103,0.5757475796634768,0.603727759933639,0.6441183643871182,0.6831382536110293,0.6892468736778248,0.6739398489209003,0.6670193119751746,0.6614940299690242,0.6518607808755197,0.6431222758451189,0.6804773982303074,0.732240762345963,0.7786855641246888,0.8261120905703423,0.8771409366943097
0,1,2,3,4,5,6,7,8,9,10,11,12,13,14,15,16,17,18,19,20,21,22,23,24,25,26,27,28,29,30,31,32,33,34,35,36,37,38,39,40,41,42,43,44,45,46,47,48,49,50,51,52,53,54,55,56,57,58,59,60,61,62,63,64,65,66,67,68,69,70,71,72,73,74,75,76,77,78,79,80,81,82,83,84,85,86,87,88,89,90,91,92,93,94,95,96,97,98,99,100,101,102,103,104,105,106,107,108,109,110,111,112,113,114,115,116,117,118,119,120,121,122,123,124,125,126,127,128,129,130,131,132,133,134,135,136,137,138,139,140,141,142,143,144,145,146,147,148,149,150,151,152,153,154,155,156,157,158,159,160,161,162,163,164,165,166,167,168,169,170,171,172,173,174,175,176,177,178,179,180,181,182,183,184,185,186,187,188,189,190,191,192,193,194,195,196,197,198,199,200,201,202,203,204,205,206,207,208,209,210,211,212,213,214,215,216,217,218,219,220,221,222,223,224,225,226,227,228,229,230,231,232,233,234,235,236,237,238,239,240,241,242,243,244,245,246,247,248,249,250,251,252,253,254
0.07370029897780217,0.15034007091268542,0.27071441243759775,0.3607720058046149,0.4207050256565874,0.46319410608756595,0.49468269418990385,0.4300680232104397,0.30575878254509714,0.1866709419286554,0.10814802284047298,0.07712457500766456,0.12047367117909635,0.20830468859462536,0.28177891249786136,0.3939922529617794,0.45596332096365,0.3602281269791532,0.25282995444516754,0.2347556321487918,0.31633199440117865,0.32104629065040635,0.24243061001784882,0.14135045292144044,0.05919671737247523,0.009218433425670192,0.04920640258640452,0.14079459325270438,0.2529738632459235,0.3718163668574528,0.49625105463553343,0.6043148121863755,0.7069599889312337,0.7750836908009506,0.795041886252212,0.8092748040345947,0.7999464962305569,0.7836143160803721,0.7719062905514882,0.7617384395066567,0.7494030506224783,0.7487755985732849,0.7298854391077314,0.67300404029774,0.6395913660468251,0.6794566340307964,0.760345494879163,0.7981780445196893,0.7696699158308835,0.6588957108846296,0.5284078153306719,0.400965990882614,0.375238971575226,0.4836128378694622,0.5025579257773334,0.4126996293388103,0.40093985627083306,0.4323543729085677,0.3992054686043609,0.33804532918971253,0.2652402150302908,0.17577553321113237,0.07688405409135379,0.003420535453185991,0.0,0.08269854530345855,0.18406354074663733,0.2930643989423629,0.41300227282725555,0.5366668621570039,0.6537070406369843,0.7514755799962063,0.825454799090438,0.8604927351385081,0.8625840837657419,0.854160846376288,0.8515833677535394,0.8489247633642019,0.8579595637644286,0.8663979671640116,0.8701093308588486,0.824947107440424,0.7780541553214682,0.7930237538522302,0.8671036447131071,0.9138479363825778,0.9061435355487819,0.804145051925071,0.6717500779612875,0.5325967471785531,0.4194284464515481,0.4391685726311976,0.5270989352713089,0.4737672505969073,0.4762160530904249,0.5246495216374507,0.4947258445669318,0.43855659649534706,0.35892030048215506,0.26532546934670886,0.173585200293481,0.09602022227095874,0.05529792196180372,0.09746779723558374,0.1870298745874619,0.295217555034629,0.41157724528730943,0.5422366978582982,0.6497684582889103,0.7481691748654642,0.8217792600596936,0.8526042643184621,0.8623599801688955,0.8518557242834905,0.8398808604154722,0.826978991678724,0.8188564522179029,0.8189831052982584,0.7710562618928263,0.7250979108300823,0.7199475218544427,0.796369313935696,0.8560463299271555,0.871789363273463,0.7881059026444732,0.6593824021026338,0.5229963205676715,0.40169300941931185,0.40010862849716,0.5249747530886593,0.5456268671290103,0.468445871003512,0.4854932156676708,0.5521627443207473,0.5521359204033462,0.6442233798966117,0.7554706883463407,0.75440820609735,0.669479865372054,0.7367749053786325,0.8580469668827924,0.9613296043569854,0.9794366903271468,0.9398804172588275,0.8923079390488247,0.8262712908651135,0.798394171319357,0.8514412706107368,0.8887185210507371,0.884759722822237,0.8971008579395101,0.9218197309547516,0.917477239957583,0.9342794160473491,0.9311656322120148,0.9333410228165326,0.9203632891971476,0.8815271712950294,0.8159634324881067,0.7200287647493084,0.6011007621356268,0.48514239495840616,0.371177532153828,0.25596292538352916,0.16593193163256004,0.1733923890557052,0.25682972066811516,0.34893580364626064,0.43779239146750015,0.510844385988019,0.5635094142351145,0.595113726620796,0.5648984909297732,0.5945814839167736,0.7133696942199315,0.7628267512342704,0.762998016728722,0.87664792777452,0.9801425239513448,0.9999999999999996,0.9716001849060079,0.9254542252199465,0.8513810363491578,0.8622081901433458,0.9181857080115337,0.9455519030316668,0.9410461476187275,0.93292364607619,0.9264181313168556,0.9235684474649868,0.9292026780925862,0.9311286298705244,0.9278899094422868,0.9358913167729752,0.89548127053884,0.8271671224384312,0.7317340241161348,0.6144117833169056,0.5033060074055355,0.3822942281323787,0.2668363036117172,0.16523631781601766,0.07935978228196561,0.12624325810943748,0.21886803188977133,0.3084242420012271,0.38827905381252314,0.4498235975736744,0.4945616999058,0.4933882810860615,0.4696339904368294,0.5691838666482414,0.6955433312500472,0.7595600673214999,0.6887354929248684,0.7313287511987352,0.8409017772026233,0.8999736338296764,0.8733125276208988,0.8333566257973053,0.7618780330589034,0.7080525449281172,0.7485898954437848,0.8063740026744104,0.8256138634274204,0.8188160289868835,0.8197620287772494,0.8275313278442575,0.8438394116488444,0.8574313265400089,0.8712373433730267,0.8696201009747084,0.850193800612892,0.808732316303534,0.7307021691785547,0.6208082463097897,0.5017865629281055,0.3888922415265794,0.2746166765414406,0.16531929536829626,0.0978809208873832,0.14912869662991435,0.2391916917158201,0.33196171717041256,0.41305733392236865,0.48259411579916867,0.5531245643199778,0.5733106394120178,0.5522739357198456,0.6287787570463115,0.7318155850686372,0.7084804734958063,0.6842130055553519,0.8019942646806051,0.9176964212165699
0,1,2,3,4,5,6,7,8,9,10,11,12,13,14,15,16,17,18,19,20,21,22,23,24,25,26,27,28,29,30,31,32,33,34,35,36,37,38,39,40,41,42,43,44,45,46,47,48,49,50,51,52,53,54,55,56,57,58,59,60,61,62,63,64,65,66,67,68,69,70,71,72,73,74,75,76,77,78,79,80,81,82,83,84,85,86,87,88,89,90,91,92,93,94,95,96,97,98,99,100,101,102,103,104,105,106,107,108,109,110,111,112,113,114,115,116,117,118,119,120,121,122,123,124,125,126,127,128,129,130,131,132,133,134,135,136,137,138,139,140,141,142,143,144,145,146,147,148,149,150,151,152,153,154,155,156,157,158,159,160,161,162,163,164,165,166,167,168,169,170,171,172,173,174,175,176,177,178,179,180,181,182,183,184,185,186,187,188,189,190,191,192,193,194,195,196,197,198,199,200,201,202,203,204,205,206,207,208,209,210,211,212,213,214,215,216,217,218,219,220,221,222,223,224,225,226,227,228,229,230,231,232,233,234,235,236,237,238,239,240,241,242,243,244,245,246,247,248,249,250,251,252,253,254
0.37648627695581116,0.4528625922964501,0.524828577829129,0.5761868916191585,0.6355624127020033,0.6746391557928607,0.6799175661562925,0.630117248515894,0.6510822182582224,0.7255380579072556,0.8053313027039516,0.880564626422038,0.9240160291746288,0.8827469931173898,0.8423604359346207,0.8072980435811973,0.7655351077989639,0.7162229234367211,0.6904006271399726,0.7109272600919662,0.7488157918821444,0.7868622126885724,0.8221050193273979,0.8425364690146745,0.8431978721776251,0.8500928453836712,0.8535146006680835,0.8395525222402346,0.8143879381043247,0.8082404765171619,0.8317135855785499,0.8357472688381792,0.8185437174996816,0.7728397419155234,0.7065446972786124,0.6281357615811346,0.5494925202283351,0.4670452878000696,0.38986369676527965,0.3084473961192665,0.2251977718375392,0.14478437671216027,0.11621815902946386,0.17564024126101063,0.2565918781562748,0.33525656906389867,0.41475001271339573,0.49777169577022395,0.5764253689947608,0.655610277895693,0.7332907608805191,0.8105611145275254,0.8850012591185915,0.9128112004011021,0.8627076816031966,0.8210213881005587,0.7856371925262488,0.7407188096048322,0.6955852175025022,0.6686233168471282,0.6809411781804894,0.7149158259419474,0.7435464696119102,0.7699415436365143,0.7666233760812099,0.7583045881494478,0.7688268898239737,0.7694605301100298,0.7440967496898409,0.7367870667037296,0.761571257933867,0.7715176266542317,0.754421425866895,0.6953408524239985,0.6192213395228693,0.5386468049946008,0.47007832258198545,0.4041141872612629,0.3331970882777969,0.2554059930246486,0.1728438122379522,0.095359775157427,0.018585558348032993,0.0,0.06528737902837844,0.1355916904356178,0.2059657298898775,0.2770356250795798,0.35866049045500936,0.4388750507898108,0.5168948519738895,0.5984631116739244,0.6754315027693499,0.7549154109504977,0.8296516670586492,0.874848931116042,0.8343065887217375,0.7893803680414161,0.7615711878962542,0.7204135448582686,0.6755036083245839,0.6474905456966421,0.6679890457564864,0.6989811179100934,0.7334724455642104,0.7599443811314196,0.7621374891451399,0.7697123148274453,0.7811915803093917,0.7734269132755202,0.7850900824235169,0.820347398939672,0.8284465994705571,0.807598467969168,0.7422120564560827,0.6648728059198318,0.5870474137065477,0.5070442832428145,0.4270696886749493,0.3488791181372096,0.2658992411265204,0.18635661421288363,0.11841823494688919,0.060094699760755654,0.06857727034440642,0.1388191484084763,0.21881599769740112,0.2964631863058058,0.3771105888635463,0.460164020933877,0.5357311795973686,0.6099056425222972,0.6889621937552691,0.7675546641032381,0.8455404117277984,0.914396362415333,0.9155227256684727,0.8671452424034801,0.8385473696697342,0.8009589210551119,0.7568466430502755,0.7163240749248333,0.7135749276180386,0.7430445401499247,0.7405215343762265,0.7671412567886006,0.8104443958322681,0.8523656551662248,0.8818261097781174,0.9250712237004316,0.9780256096335388,0.9999999999999999,0.9459492712464682,0.8674012668799115,0.7903020730272888,0.7134112529952851,0.6322903789737492,0.5536237177122755,0.4794510119384999,0.4780536757595816,0.5550857810525992,0.6335442482035584,0.7126521262683273,0.7888038302084205,0.8452639718068616,0.8502583845881343,0.8545319404570847,0.8321498316083921,0.8034192372213061,0.8065609933682053,0.808291470418738,0.7942642684556528,0.7895422770264479,0.7759207885772027,0.7438424001891389,0.7104176200734637,0.6832696269885427,0.6981027020162688,0.743435773911934,0.7836129267037247,0.8129969784955869,0.8569883657591083,0.923129733722866,0.9496315717367932,0.8981820391405911,0.8341722837868163,0.7656086900639442,0.6834937471859551,0.6002483164749172,0.5192496597412976,0.441819624513336,0.3617581576877483,0.3436328230880469,0.41271899245732435,0.49528370254014054,0.5730995311447095,0.6526292789860678,0.7280809818218222,0.7850359039168794,0.7963764780465951,0.7989731271832404,0.7809918341838592,0.7678361899618583,0.7918631677574391,0.8007983599141538,0.793776276682476,0.7881749975985676,0.7995306692990086,0.7896340553545619,0.764501827345185,0.7336828846420297,0.7042967879528451,0.7123926497846228,0.7537072081264945,0.8004891159840185,0.8360406140984472,0.8774275863940088,0.9384443787282942,0.984318940670211,0.951416811574821,0.8790833246293083,0.8029153636180647,0.7256755062558654,0.6462364915178945,0.5692669492863199,0.49776405701425663,0.5145319667861284,0.5934609029054269,0.6722940806144927,0.7515074341512397,0.8280223222672886,0.8632063848180441,0.8601202009510319,0.8667207098249364,0.854659943920082,0.8350113035935657,0.8519582912196021,0.8737769340986844,0.8816737805743794,0.8778475906699535,0.8713941096974359,0.8705884776755125,0.852080750872047,0.8182515202941539,0.77987739258964,0.7434187774203246,0.7240128443447135,0.7591990176244608,0.8058705191042258,0.8443735695601328,0.8797097170377485,0.9345503428218843,0.9888116280247751,0.9707279669357051,0.908500699568508
0,1,2,3,4,5,6,7,8,9,10,11,12,13,14,15,16,17,18,19,20,21,22,23,24,25,26,27,28,29,30,31,32,33,34,35,36,37,38,39,40,41,42,43,44,45,46,47,48,49,50,51,52,53,54,55,56,57,58,59,60,61,62,63,64,65,66,67,68,69,70,71,72,73,74,75,76,77,78,79,80,81,82,83,84,85,86,87,88,89,90,91,92,93,94,95,96,97,98,99,100,101,102,103,104,105,106,107,108,109,110,111,112,113,114,115,116,117,118,119,120,121,122,123,124,125,126,127,128,129,130,131,132,133,134,135,136,137,138,139,140,141,142,143,144,145,146,147,148,149,150,151,152,153,154,155,156,157,158,159,160,161,162,163,164,165,166,167,168,169,170,171,172,173,174,175,176,177,178,179,180,181,182,183,184,185,186,187,188,189,190,191,192,193,194,195,196,197,198,199,200,201,202,203,204,205,206,207,208,209,210,211,212,213,214,215,216,217,218,219,220,221,222,223,224,225,226,227,228,229,230,231,232,233,234,235,236,237,238,239,240,241,242,243,244,245,246,247,248,249,250,251,252,253,254
0.7091023994863219,0.6713714198420986,0.5736766142441581,0.5177715610746567,0.5922369768935267,0.7070594598750621,0.8111943325914845,0.8124199051380252,0.7153680280148627,0.6285121573107086,0.5670313352789886,0.5051463046026208,0.4272439676694253,0.34459055219297285,0.2597601345707363,0.1730474034392051,0.08789398841926443,0.04223869295194582,0.07969268780834726,0.16797050173917238,0.2673258853609215,0.36617361834285767,0.4711797891490668,0.5646937698383043,0.6309106980838046,0.6573827449532974,0.6336434073701245,0.575253581462158,0.5594331485526229,0.600996330671745,0.6572330796078769,0.6862921235687804,0.6788500250633711,0.6010624602907324,0.5119196366011018,0.5088259897369403,0.6104530638977139,0.7219651015969832,0.8028572341235662,0.7453559670004877,0.648222828057341,0.5828484611747635,0.527526518400681,0.4504883505782673,0.37043802621491295,0.28908859067085046,0.1959945474940037,0.11173625602876314,0.04281737369527239,0.03686079412190191,0.10976734605102534,0.19866191250754817,0.2823735675545693,0.38803701546751235,0.4828759339723607,0.5607387153668943,0.614956215684419,0.6234646629822818,0.5792764699144697,0.5212752898018986,0.5355502540133514,0.59109939289797,0.6371199160519709,0.6522887484765523,0.6445671035054983,0.5594425524811037,0.4655267095360234,0.47761364701988773,0.579506931562705,0.6909889063109933,0.7633545199770873,0.6939461056325915,0.604893458098184,0.5443104808503514,0.4837168740838642,0.42014936920652746,0.34155764747395523,0.2526352923852708,0.16961773094651056,0.08871218109930323,0.04131365470498771,0.07989517325369011,0.16956693664729583,0.2775825200782105,0.37624451327896935,0.47328560387521845,0.5601622554720889,0.6213333568220758,0.6479059902973523,0.6431286111419237,0.5993559754108331,0.5761434802938279,0.6238270121050751,0.6756334569546789,0.6985025146997752,0.6958239054225519,0.67162564975209,0.5791922925594477,0.49421898450381097,0.5212656666161348,0.6315910051688349,0.7401402369016252,0.781133280036701,0.698718556161801,0.6146923609078456,0.5516682029526141,0.4902384500594006,0.40845967030483843,0.3209433044043646,0.23692630834289874,0.14877388530443625,0.05861722414408321,0.0,0.026856818116340886,0.10453534919730467,0.18668301676002885,0.28644479347682505,0.38887957855556143,0.4893924571500752,0.5818986235562469,0.6442009506457822,0.6568426320412293,0.6191451989377019,0.5739278542817874,0.6032773328940504,0.6661683456353704,0.7268389564597211,0.7754890360828028,0.7590632406564257,0.6948523770888335,0.6416510315841704,0.6589655931670007,0.6957597230636239,0.696343847596661,0.6647284173958137,0.5850440255447009,0.4924598654562944,0.3940409765864752,0.29116588408222865,0.19079018451753438,0.09202490408979136,0.07147840896526958,0.14613069953533664,0.23838504203728483,0.32718390419903143,0.4119730627990732,0.49212482625731546,0.5644178668260964,0.6234366217248062,0.7001961309155917,0.7993432184540952,0.8896566061663078,0.9403721309896893,0.8765090466747938,0.7609651926614194,0.6553059596157138,0.6648749779412482,0.7498537654986093,0.7578034856385893,0.7457641313373697,0.7318930391848704,0.6923728629246866,0.6452183138380065,0.6529012036551078,0.6923348950363382,0.6941638688962133,0.6640826194102285,0.6099591519913345,0.5269646700803987,0.42991325040103945,0.3230652245656538,0.22284046111808076,0.1299523290209974,0.10322300022204933,0.17523854266689165,0.25814153412884666,0.34154033401287265,0.42578696558116924,0.49635092467028175,0.5594667831688551,0.6144752057586591,0.6956094208607144,0.8002467273895895,0.8915788492131265,0.8716234419972331,0.7747247171356242,0.6688869328334732,0.6229501732329465,0.7007833219250079,0.7212373319800043,0.699343242704594,0.6918664447929168,0.6501448472819629,0.5977635493947315,0.6096393856757958,0.6629540096946682,0.679689158572756,0.6593057541894107,0.6083657426294979,0.5323368459602604,0.43369519446695737,0.3349659195358914,0.234551047442364,0.14112662535140652,0.09602464409075928,0.15905614368709076,0.24168673552574216,0.33116199139170543,0.41852970151147506,0.49663813956510605,0.5666336081770593,0.6220109983128546,0.6902019775010819,0.7911102124361356,0.9063387380747376,0.984565182779638,0.9389627645240943,0.8355690912314171,0.7257070839804394,0.6584986989075237,0.7269015483040189,0.7604805506551409,0.7414224470795454,0.7253210917534951,0.6871086567695035,0.6336299180759233,0.6241482850672035,0.6752771437850558,0.7015253452882559,0.7002217594241431,0.6625278255226736,0.5879735745258499,0.4944860989795212,0.3968386889120845,0.2981744047609718,0.19949762579877994,0.1087418846759074,0.11710180277027593,0.19569783695531795,0.2842316419072315,0.37205397443901456,0.4533392495522657,0.5274829614738912,0.5949752015921397,0.6509577370275479,0.7425632283718517,0.8488852016476467,0.9564273320203007,1.0,0.9242833965337831,0.8101135850953196,0.7027369587331522,0.7075549324280392,0.7746442136763991,0.7569049165680424
0,1,2,3,4,5,6,7,8,9,10,11,12,13,14,15,16,17,18,19,20,21,22,23,24,25,26,27,28,29,30,31,32,33,34,35,36,37,38,39,40,41,42,43,44,45,46,47,48,49,50,51,52,53,54,55,56,57,58,59,60,61,62,63,64,65,66,67,68,69,70,71,72,73,74,75,76,77,78,79,80,81,82,83,84,85,86,87,88,89,90,91,92,93,94,95,96,97,98,99,100,101,102,103,104,105,106,107,108,109,110,111,112,113,114,115,116,117,118,119,120,121,122,123,124,125,126,127,128,129,130,131,132,133,134,135,136,137,138,139,140,141,142,143,144,145,146,147,148,149,150,151,152,153,154,155,156,157,158,159,160,161,162,163,164,165,166,167,168,169,170,171,172,173,174,175,176,177,178,179,180,181,182,183,184,185,186,187,188,189,190,191,192,193,194,195,196,197,198,199,200,201,202,203,204,205,206,207,208,209,210,211,212,213,214,215,216,217,218,219,220,221,222,223,224,225,226,227,228,229,230,231,232,233,234,235,236,237,238,239,240,241,242,243,244,245,246,247,248,249,250,251,252,253,254
0.6027139760386984,0.5774997392333066,0.5623881597553049,0.5471709527131612,0.5613355710572154,0.6212485549338065,0.6998215666968068,0.7729379958722467,0.8279501648646095,0.8134386251464956,0.7508706631918511,0.6824769710806362,0.6369175707680075,0.6191735362444852,0.6080604938167364,0.6125170047945994,0.6265141255747047,0.617259878341462,0.6389648612516825,0.6175401300550019,0.5690054176695107,0.5434893013300863,0.5807523649412345,0.629236887380968,0.5741030893021168,0.4715642409990486,0.349179283579804,0.22616587219908002,0.09440607509858756,0.0,0.03449448030199376,0.16053695967879555,0.30067208144987134,0.4408383965117513,0.572231465909546,0.6924396391629468,0.7148128874767319,0.6391579072667639,0.5805178668988424,0.5518587828728632,0.552608883540854,0.5209594098595862,0.5285877324018009,0.5797508065354617,0.6449119688863996,0.7101927928696541,0.7924554497466327,0.8388144185572455,0.7935924154958633,0.7198115514096153,0.6690262243002838,0.6246185698878364,0.5906272978519964,0.5878780091692009,0.6026351606889406,0.594383387380486,0.6125061068561815,0.6119469941192945,0.5782302315021925,0.5393520561841991,0.5400295938599462,0.6022570121175703,0.6315821103308097,0.5638240236942149,0.4538016897479298,0.325057755915271,0.2019328837586052,0.07415841871550066,0.02373390036638634,0.11512254939978828,0.24383571082392752,0.37240195782863994,0.5120498450475344,0.6397844368139571,0.7673271732398379,0.8066366743918159,0.7137635327099017,0.6340033220761279,0.6082978334900946,0.5988132413542191,0.593468203911304,0.5900599152074832,0.6239844756930344,0.6821750363267647,0.7600543129888306,0.8412418091669913,0.8824712586058894,0.8464712892275981,0.7789731008395915,0.7237109623603502,0.6762194562394854,0.6451770926239355,0.6417968083699694,0.6452268696984529,0.6310460543026402,0.6354635881097606,0.6329977843684715,0.6063739294882495,0.5506902036035313,0.52542129946973,0.5733691865982111,0.642309633912689,0.6084604078492348,0.5100204835016293,0.3848965180766659,0.24530501938160532,0.12597231711054713,0.12562504730542967,0.23396313942620006,0.3701466092889918,0.49595670038170736,0.6284335335197375,0.7346702527621827,0.6985031413913179,0.6382468965875119,0.6191466478907008,0.602421365047662,0.5864121485150946,0.5911108676082097,0.6363138014622507,0.7220568920910675,0.806248564362634,0.8585194403660767,0.8397449847465088,0.7820891336445683,0.7129383535976754,0.6449250905826318,0.6303829722215539,0.6222415075344006,0.6105543220081882,0.6178996552852833,0.6252082101918459,0.6765310924734087,0.6921414062757831,0.6759754590890896,0.6877125939305908,0.69384539664718,0.6979022311294543,0.7625897966272315,0.8343243896184758,0.8954944395612796,0.9381789301087076,0.9265085213456339,0.8768298159397223,0.7963519664532464,0.7042914704893621,0.664059449295423,0.6639567994875311,0.6833904791071594,0.7056032641637318,0.7469241301436056,0.844671824573878,0.9555904774764001,0.9756705955719389,0.8871035467108888,0.7661119965476466,0.6289690731124997,0.5627320517378829,0.6503110505374039,0.7201301877561384,0.7353680432521053,0.680514806943203,0.6114637203546689,0.6265778353059295,0.6843190805892361,0.7061524023190575,0.7170568425844053,0.7134734448394195,0.7180639590543558,0.7082644908920712,0.7152119544804778,0.7510072718414804,0.8066918997485337,0.8763386833408675,0.9317691798218175,0.9658443469217626,0.9340189000915058,0.8635098451810586,0.7861549799224079,0.7172305576949785,0.6697347944793042,0.6657789777522392,0.6825108966978806,0.6918309838083978,0.7618097070450669,0.8661983523037833,0.9649264919351732,0.9999999999999996,0.9199880665389144,0.790207065654966,0.650045105578168,0.5152699984129239,0.4956543872062995,0.5972053635668431,0.6825767733758195,0.702702480203873,0.6651367897593539,0.6139182333685023,0.6332268512315595,0.6747796133351489,0.695414271495586,0.6811190240284315,0.6695232860407323,0.6719038757831743,0.6634767596946793,0.6858971089408716,0.7279980200476435,0.7775838741197001,0.8496768649702826,0.9023382174438503,0.898365758002619,0.8327939565029538,0.7608139281992248,0.6905685720698269,0.6201961350138698,0.5968650233660671,0.6146379865634732,0.6359050370071699,0.6737841107967566,0.7523699703918969,0.8620139795952184,0.950426013250341,0.9294431400820584,0.8120941712330474,0.680571081858889,0.5542266296711365,0.4280105450456686,0.4526601849549592,0.5617596797002444,0.6504111766371112,0.7110746442973528,0.6995010443231306,0.6390039373441043,0.6198821360821176,0.6674342268619693,0.7062409335502715,0.7085777026720725,0.6894577648516282,0.6946002234434188,0.6781677311389567,0.6823925027163167,0.6887326941776686,0.720960915297101,0.7710006952050197,0.8424388297722047,0.8977720443322683,0.9131231712881474,0.86090766647323,0.8058052297622313,0.7237810494465977,0.6513039766438222,0.6208279606416158,0.6348258685093011,0.6466127045267682,0.6827331749281043
0,1,2,3,4,5,6,7,8,9,10,11,12,13,14,15,16,17,18,19,20,21,22,23,24,25,26,27,28,29,30,31,32,33,34,35,36,37,38,39,40,41,42,43,44,45,46,47,48,49,50,51,52,53,54,55,56,57,58,59,60,61,62,63,64,65,66,67,68,69,70,71,72,73,74,75,76,77,78,79,80,81,82,83,84,85,86,87,88,89,90,91,92,93,94,95,96,97,98,99,100,101,102,103,104,105,106,107,108,109,110,111,112,113,114,115,116,117,118,119,120,121,122,123,124,125,126,127,128,129,130,131,132,133,134,135,136,137,138,139,140,141,142,143,144,145,146,147,148,149,150,151,152,153,154,155,156,157,158,159,160,161,162,163,164,165,166,167,168,169,170,171,172,173,174,175,176,177,178,179,180,181,182,183,184,185,186,187,188,189,190,191,192,193,194,195,196,197,198,199,200,201,202,203,204,205,206,207,208,209,210,211,212,213,214,215,216,217,218,219,220,221,222,223,224,225,226,227,228,229,230,231,232,233,234,235,236,237,238,239,240,241,242,243,244,245,246,247,248,249,250,251,252,253,254
0.6027139760386984,0.5774997392333066,0.5623881597553049,0.5471709527131612,0.5613355710572154,0.6212485549338065,0.6998215666968068,0.7729379958722467,0.8279501648646095,0.8134386251464956,0.7508706631918511,0.6824769710806362,0.6369175707680075,0.6191735362444852,0.6080604938167364,0.6125170047945994,0.6265141255747047,0.617259878341462,0.6389648612516825,0.6175401300550019,0.5690054176695107,0.5434893013300863,0.5807523649412345,0.629236887380968,0.5741030893021168,0.4715642409990486,0.349179283579804,0.22616587219908002,0.09440607509858756,0.0,0.03449448030199376,0.16053695967879555,0.30067208144987134,0.4408383965117513,0.572231465909546,0.6924396391629468,0.7148128874767319,0.6391579072667639,0.5805178668988424,0.5518587828728632,0.552608883540854,0.5209594098595862,0.5285877324018009,0.5797508065354617,0.6449119688863996,0.7101927928696541,0.7924554497466327,0.8388144185572455,0.7935924154958633,0.7198115514096153,0.6690262243002838,0.6246185698878364,0.5906272978519964,0.5878780091692009,0.6026351606889406,0.594383387380486,0.6125061068561815,0.6119469941192945,0.5782302315021925,0.5393520561841991,0.5400295938599462,0.6022570121175703,0.6315821103308097,0.5638240236942149,0.4538016897479298,0.325057755915271,0.2019328837586052,0.07415841871550066,0.02373390036638634,0.11512254939978828,0.24383571082392752,0.37240195782863994,0.5120498450475344,0.6397844368139571,0.7673271732398379,0.8066366743918159,0.7137635327099017,0.6340033220761279,0.6082978334900946,0.5988132413542191,0.593468203911304,0.5900599152074832,0.6239844756930344,0.6821750363267647,0.7600543129888306,0.8412418091669913,0.8824712586058894,0.8464712892275981,0.7789731008395915,0.7237109623603502,0.6762194562394854,0.6451770926239355,0.6417968083699694,0.6452268696984529,0.6310460543026402,0.6354635881097606,0.6329977843684715,0.6063739294882495,0.5506902036035313,0.52542129946973,0.5733691865982111,0.642309633912689,0.6084604078492348,0.5100204835016293,0.3848965180766659,0.24530501938160532,0.12597231711054713,0.12562504730542967,0.23396313942620006,0.3701466092889918,0.49595670038170736,0.6284335335197375,0.7346702527621827,0.6985031413913179,0.6382468965875119,0.6191466478907008,0.602421365047662,0.5864121485150946,0.5911108676082097,0.6363138014622507,0.7220568920910675,0.806248564362634,0.8585194403660767,0.8397449847465088,0.7820891336445683,0.7129383535976754,0.6449250905826318,0.6303829722215539,0.6222415075344006,0.6105543220081882,0.6178996552852833,0.6252082101918459,0.6765310924734087,0.6921414062757831,0.6759754590890896,0.6877125939305908,0.69384539664718,0.6979022311294543,0.7625897966272315,0.8343243896184758,0.8954944395612796,0.9381789301087076,0.9265085213456339,0.8768298159397223,0.7963519664532464,0.7042914704893621,0.664059449295423,0.6639567994875311,0.6833904791071594,0.7056032641637318,0.7469241301436056,0.844671824573878,0.9555904774764001,0.9756705955719389,0.8871035467108888,0.7661119965476466,0.6289690731124997,0.5627320517378829,0.6503110505374039,0.7201301877561384,0.7353680432521053,0.680514806943203,0.6114637203546689,0.6265778353059295,0.6843190805892361,0.7061524023190575,0.7170568425844053,0.7134734448394195,0.7180639590543558,0.7082644908920712,0.7152119544804778,0.7510072718414804,0.8066918997485337,0.8763386833408675,0.9317691798218175,0.9658443469217626,0.9340189000915058,0.8635098451810586,0.7861549799224079,0.7172305576949785,0.6697347944793042,0.6657789777522392,0.6825108966978806,0.6918309838083978,0.7618097070450669,0.8661983523037833,0.9649264919351732,0.9999999999999996,0.9199880665389144,0.790207065654966,0.650045105578168,0.5152699984129239,0.4956543872062995,0.5972053635668431,0.6825767733758195,0.702702480203873,0.6651367897593539,0.6139182333685023,0.6332268512315595,0.6747796133351489,0.695414271495586,0.6811190240284315,0.6695232860407323,0.6719038757831743,0.6634767596946793,0.6858971089408716,0.7279980200476435,0.7775838741197001,0.8496768649702826,0.9023382174438503,0.898365758002619,0.8327939565029538,0.7608139281992248,0.6905685720698269,0.6201961350138698,0.5968650233660671,0.6146379865634732,0.6359050370071699,0.6737841107967566,0.7523699703918969,0.8620139795952184,0.950426013250341,0.9294431400820584,0.8120941712330474,0.680571081858889,0.5542266296711365,0.4280105450456686,0.4526601849549592,0.5617596797002444,0.6504111766371112,0.7110746442973528,0.6995010443231306,0.6390039373441043,0.6198821360821176,0.6674342268619693,0.7062409335502715,0.7085777026720725,0.6894577648516282,0.6946002234434188,0.6781677311389567,0.6823925027163167,0.6887326941776686,0.720960915297101,0.7710006952050197,0.8424388297722047,0.8977720443322683,0.9131231712881474,0.86090766647323,0.8058052297622313,0.7237810494465977,0.6513039766438222,0.6208279606416158,0.6348258685093011,0.6466127045267682,0.6827331749281043
0,1,2,3,4,5,6,7,8,9,10,11,12,13,14,15,16,17,18,19,20,21,22,23,24,25,26,27,28,29,30,31,32,33,34,35,36,37,38,39,40,41,42,43,44,45,46,47,48,49,50,51,52,53,54,55,56,57,58,59,60,61,62,63,64,65,66,67,68,69,70,71,72,73,74,75,76,77,78,79,80,81,82,83,84,85,86,87,88,89,90,91,92,93,94,95,96,97,98,99,100,101,102,103,104,105,106,107,108,109,110,111,112,113,114,115,116,117,118,119,120,121,122,123,124,125,126,127,128,129,130,131,132,133,134,135,136,137,138,139,140,141,142,143,144,145,146,147,148,149,150,151,152,153,154,155,156,157,158,159,160,161,162,163,164,165,166,167,168,169,170,171,172,173,174,175,176,177,178,179,180,181,182,183,184,185,186,187,188,189,190,191,192,193,194,195,196,197,198,199,200,201,202,203,204,205,206,207,208,209,210,211,212,213,214,215,216,217,218,219,220,221,222,223,224,225,226,227,228,229,230,231,232,233,234,235,236,237,238,239,240,241,242,243,244,245,246,247,248,249,250,251,252,253,254
0.77406260351895,0.731648120606837,0.6790315832320821,0.6264833352938093,0.604717263193715,0.616021334361087,0.6263902478937717,0.6311364994938418,0.6388278543472292,0.6534527651481101,0.6440884749518052,0.6000173512716167,0.560380778028321,0.5358469685715097,0.5369984524605658,0.5552475805695327,0.5536719268105414,0.5487357049261103,0.5607824291069778,0.5614112914071974,0.5597585417038429,0.5614417708573953,0.54761178037536,0.545335876200786,0.5464568754691175,0.5491770909659681,0.5385890537631719,0.5201867504858027,0.5115846169302412,0.5136050292893839,0.520568945037676,0.5317157248873239,0.5140749919833942,0.47332302735641774,0.41255438040051606,0.34374977116293315,0.27313503771437353,0.19501785568108354,0.11948084669112946,0.05301248900796929,0.02455477124142269,0.058203734620720704,0.12985283349989984,0.2061360361643978,0.2754618669638458,0.35293602226051046,0.43139563339063836,0.5098546328671569,0.5871412108327074,0.6563746853425634,0.7329757895245568,0.8095245372317537,0.8286868600111152,0.7748494024838857,0.7174002372853379,0.6722301901591468,0.6216661110164583,0.5731120559038436,0.5410713319158289,0.5301599828040844,0.5387096248004946,0.5511491279085552,0.566445027504179,0.5851498325112312,0.5831784032634675,0.5465653105212784,0.5037857583490062,0.4825669486053803,0.4988618444588071,0.5125711043621219,0.5158291302779958,0.5195437160148391,0.5340135419918235,0.5489309731269987,0.565363850770982,0.5675459625840424,0.5620094379367522,0.5594210090572298,0.5608124358022002,0.5522722957627162,0.5423801745377645,0.5403729929496921,0.5431984307683655,0.5585792269645371,0.5681049451931439,0.5479697882085979,0.4869241571528393,0.4175804656303084,0.3397534656171086,0.2613721352714069,0.18833794298121642,0.11648769933181824,0.04239782063242847,0.0,0.03450132431200803,0.10536251118121509,0.18363925328662778,0.2595108032279039,0.3290793649745798,0.4067659104073187,0.48522614196963065,0.5636862700043144,0.6413871242218361,0.7109574340126359,0.7867217364896251,0.8475958482535211,0.8165113653103255,0.7636004407703834,0.7210619519915336,0.6689713250571991,0.6135555387129037,0.5827504847842364,0.5762415148408648,0.5763287051819439,0.5888533898530885,0.5970856091302179,0.6106213790183268,0.5916169298878982,0.5542388148082857,0.5155543215577489,0.493277916609,0.5046378868516357,0.5180403754617651,0.5280983767904031,0.5320857892636417,0.5347249514861663,0.5351202305386946,0.5427876743699709,0.5494166605021655,0.5626217548590138,0.5648827605555489,0.5651270986464356,0.5745302880882772,0.608441375985626,0.6228458894906754,0.6109165152235823,0.6009698732140765,0.6032819943077892,0.5965428323584747,0.5876038545393689,0.5875970055161892,0.5883049371663052,0.5770269665368672,0.5734017836979552,0.5667415654888985,0.5653237435690526,0.5515866185054981,0.5379701248191864,0.5644768087795209,0.6064879674270618,0.6401520839909589,0.6540143617904739,0.6410995477980423,0.6234576041273143,0.6172199649806192,0.6161718828499014,0.6268297526339619,0.6759628190977371,0.7334125051121585,0.7781707864488185,0.8234087037625859,0.8816803180858745,0.9425814361783187,0.9630896234952762,0.911036503265598,0.8366137779709379,0.7627705789997064,0.6916748384790015,0.6134764868057248,0.5350163664891812,0.45814370958533956,0.43527741132326137,0.495322727110278,0.5596981101074949,0.6050656161835077,0.6075156527293821,0.5952333802682259,0.5797904628653445,0.5754965815738646,0.5834577881955474,0.5934410237107295,0.6003407333039317,0.5994724555802577,0.6063189995692191,0.6063617916386173,0.5979130389454077,0.5835325895906001,0.5715759926216315,0.5580631707062131,0.5569739056715866,0.5447792520518371,0.5306790452647623,0.5361192707617513,0.5783603185622976,0.6158870972001933,0.6292921109686176,0.6138855131458565,0.594670590684035,0.5799575280155305,0.5720981882005638,0.5832552901798504,0.6188048999554245,0.671935992096427,0.7205676671498147,0.7683078737732678,0.8249435594743468,0.890341796031141,0.9610022256554849,0.9999999999999998,0.9641939629790117,0.896626148696692,0.8216088062611806,0.7434199433038742,0.6721907129070821,0.5984588303975651,0.5200548177615758,0.4417331762051553,0.3830939559414983,0.419618997446666,0.48524419652134276,0.5409717197637327,0.5625045792039838,0.567961661037778,0.565313389928124,0.5562058839663295,0.5636023473100604,0.5663770022329,0.5807227913556237,0.5950247976729297,0.5974593083282371,0.5911068822375334,0.5860472973880586,0.5941913361781392,0.6034631469471246,0.599537291786101,0.6054933262539344,0.598936817362749,0.595191452362003,0.6013736775332521,0.582767791010103,0.5757475796634768,0.603727759933639,0.6441183643871182,0.6831382536110293,0.6892468736778248,0.6739398489209003,0.6670193119751746,0.6614940299690242,0.6518607808755197,0.6431222758451189,0.6804773982303074,0.732240762345963,0.7786855641246888,0.8261120905703423,0.8771409366943097
0,1,2,3,4,5,6,7,8,9,10,11,12,13,14,15,16,17,18,19,20,21,22,23,24,25,26,27,28,29,30,31,32,33,34,35,36,37,38,39,40,41,42,43,44,45,46,47,48,49,50,51,52,53,54,55,56,57,58,59,60,61,62,63,64,65,66,67,68,69,70,71,72,73,74,75,76,77,78,79,80,81,82,83,84,85,86,87,88,89,90,91,92,93,94,95,96,97,98,99,100,101,102,103,104,105,106,107,108,109,110,111,112,113,114,115,116,117,118,119,120,121,122,123,124,125,126,127,128,129,130,131,132,133,134,135,136,137,138,139,140,141,142,143,144,145,146,147,148,149,150,151,152,153,154,155,156,157,158,159,160,161,162,163,164,165,166,167,168,169,170,171,172,173,174,175,176,177,178,179,180,181,182,183,184,185,186,187,188,189,190,191,192,193,194,195,196,197,198,199,200,201,202,203,204,205,206,207,208,209,210,211,212,213,214,215,216,217,218,219,220,221,222,223,224,225,226,227,228,229,230,231,232,233,234,235,236,237,238,239,240,241,242,243,244,245,246,247,248,249,250,251,252,253,254
0.77406260351895,0.731648120606837,0.6790315832320821,0.6264833352938093,0.604717263193715,0.616021334361087,0.6263902478937717,0.6311364994938418,0.6388278543472292,0.6534527651481101,0.6440884749518052,0.6000173512716167,0.560380778028321,0.5358469685715097,0.5369984524605658,0.5552475805695327,0.5536719268105414,0.5487357049261103,0.5607824291069778,0.5614112914071974,0.5597585417038429,0.5614417708573953,0.54761178037536,0.545335876200786,0.5464568754691175,0.5491770909659681,0.5385890537631719,0.5201867504858027,0.5115846169302412,0.5136050292893839,0.520568945037676,0.5317157248873239,0.5140749919833942,0.47332302735641774,0.41255438040051606,0.34374977116293315,0.27313503771437353,0.19501785568108354,0.11948084669112946,0.05301248900796929,0.02455477124142269,0.058203734620720704,0.12985283349989984,0.2061360361643978,0.2754618669638458,0.35293602226051046,0.43139563339063836,0.5098546328671569,0.5871412108327074,0.6563746853425634,0.7329757895245568,0.8095245372317537,0.8286868600111152,0.7748494024838857,0.7174002372853379,0.6722301901591468,0.6216661110164583,0.5731120559038436,0.5410713319158289,0.5301599828040844,0.5387096248004946,0.5511491279085552,0.566445027504179,0.5851498325112312,0.5831784032634675,0.5465653105212784,0.5037857583490062,0.4825669486053803,0.4988618444588071,0.5125711043621219,0.5158291302779958,0.5195437160148391,0.5340135419918235,0.5489309731269987,0.565363850770982,0.5675459625840424,0.5620094379367522,0.5594210090572298,0.5608124358022002,0.5522722957627162,0.5423801745377645,0.5403729929496921,0.5431984307683655,0.5585792269645371,0.5681049451931439,0.5479697882085979,0.4869241571528393,0.4175804656303084,0.3397534656171086,0.2613721352714069,0.18833794298121642,0.11648769933181824,0.04239782063242847,0.0,0.03450132431200803,0.10536251118121509,0.18363925328662778,0.2595108032279039,0.3290793649745798,0.4067659104073187,0.48522614196963065,0.5636862700043144,0.6413871242218361,0.7109574340126359,0.7867217364896251,0.8475958482535211,0.8165113653103255,0.7636004407703834,0.7210619519915336,0.6689713250571991,0.6135555387129037,0.5827504847842364,0.5762415148408648,0.5763287051819439,0.5888533898530885,0.5970856091302179,0.6106213790183268,0.5916169298878982,0.5542388148082857,0.5155543215577489,0.493277916609,0.5046378868516357,0.5180403754617651,0.5280983767904031,0.5320857892636417,0.5347249514861663,0.5351202305386946,0.5427876743699709,0.5494166605021655,0.5626217548590138,0.5648827605555489,0.5651270986464356,0.5745302880882772,0.608441375985626,0.6228458894906754,0.6109165152235823,0.6009698732140765,0.6032819943077892,0.5965428323584747,0.5876038545393689,0.5875970055161892,0.5883049371663052,0.5770269665368672,0.5734017836979552,0.5667415654888985,0.5653237435690526,0.5515866185054981,0.5379701248191864,0.5644768087795209,0.6064879674270618,0.6401520839909589,0.6540143617904739,0.6410995477980423,0.6234576041273143,0.6172199649806192,0.6161718828499014,0.6268297526339619,0.6759628190977371,0.7334125051121585,0.7781707864488185,0.8234087037625859,0.8816803180858745,0.9425814361783187,0.9630896234952762,0.911036503265598,0.8366137779709379,0.7627705789997064,0.6916748384790015,0.6134764868057248,0.5350163664891812,0.45814370958533956,0.43527741132326137,0.495322727110278,0.5596981101074949,0.6050656161835077,0.6075156527293821,0.5952333802682259,0.5797904628653445,0.5754965815738646,0.5834577881955474,0.5934410237107295,0.6003407333039317,0.5994724555802577,0.6063189995692191,0.6063617916386173,0.5979130389454077,0.5835325895906001,0.5715759926216315,0.5580631707062131,0.5569739056715866,0.5447792520518371,0.5306790452647623,0.5361192707617513,0.5783603185622976,0.6158870972001933,0.6292921109686176,0.6138855131458565,0.594670590684035,0.5799575280155305,0.5720981882005638,0.5832552901798504,0.6188048999554245,0.671935992096427,0.7205676671498147,0.7683078737732678,0.8249435594743468,0.890341796031141,0.9610022256554849,0.9999999999999998,0.9641939629790117,0.896626148696692,0.8216088062611806,0.7434199433038742,0.6721907129070821,0.5984588303975651,0.5200548177615758,0.4417331762051553,0.3830939559414983,0.419618997446666,0.48524419652134276,0.5409717197637327,0.5625045792039838,0.567961661037778,0.565313389928124,0.5562058839663295,0.5636023473100604,0.5663770022329,0.5807227913556237,0.5950247976729297,0.5974593083282371,0.5911068822375334,0.5860472973880586,0.5941913361781392,0.6034631469471246,0.599537291786101,0.6054933262539344,0.598936817362749,0.595191452362003,0.6013736775332521,0.582767791010103,0.5757475796634768,0.603727759933639,0.6441183643871182,0.6831382536110293,0.6892468736778248,0.6739398489209003,0.6670193119751746,0.6614940299690242,0.6518607808755197,0.6431222758451189,0.6804773982303074,0.732240762345963,0.7786855641246888,0.8261120905703423,0.8771409366943097
0,1,2,3,4,5,6,7,8,9,10,11,12,13,14,15,16,17,18,19,20,21,22,23,24,25,26,27,28,29,30,31,32,33,34,35,36,37,38,39,40,41,42,43,44,45,46,47,48,49,50,51,52,53,54,55,56,57,58,59,60,61,62,63,64,65,66,67,68,69,70,71,72,73,74,75,76,77,78,79,80,81,82,83,84,85,86,87,88,89,90,91,92,93,94,95,96,97,98,99,100,101,102,103,104,105,106,107,108,109,110,111,112,113,114,115,116,117,118,119,120,121,122,123,124,125,126,127,128,129,130,131,132,133,134,135,136,137,138,139,140,141,142,143,144,145,146,147,148,149,150,151,152,153,154,155,156,157,158,159,160,161,162,163,164,165,166,167,168,169,170,171,172,173,174,175,176,177,178,179,180,181,182,183,184,185,186,187,188,189,190,191,192,193,194,195,196,197,198,199,200,201,202,203,204,205,206,207,208,209,210,211,212,213,214,215,216,217,218,219,220,221,222,223,224,225,226,227,228,229,230,231,232,233,234,235,236,237,238,239,240,241,242,243,244,245,246,247,248,249,250,251,252,253,254
0.7030723356314146,0.6897431133971768,0.6494362366982165,0.6160099670086161,0.6635078824390195,0.7203528289244916,0.7229973629044226,0.6624748398100697,0.5580984532705255,0.4437545696958882,0.32838370008627327,0.22116629689765865,0.10536841360115545,0.01615734471872665,0.04420187841319656,0.15143060834445587,0.2691969044963034,0.387100585956351,0.5033951692528429,0.610467645847286,0.7243907684626631,0.7775048700422194,0.7361641107438224,0.7066305441163341,0.6838183962608284,0.6507983068987107,0.6088912157547541,0.5645509854697901,0.5596504037972962,0.608760570426093,0.6691500464202973,0.710432903056996,0.7164211862629879,0.7260563963399929,0.7036313259376732,0.6527917553398217,0.6627973824432598,0.7084946407366337,0.7376873408406965,0.6909723651237301,0.5839057726203694,0.4759883930800084,0.3621747160566968,0.2456023379607415,0.13869417081508306,0.046602506284487255,0.0751981844048828,0.1879288643569501,0.30514128616231617,0.4132367323413797,0.527079720846974,0.6445197368903,0.7506808975456771,0.7912997148447214,0.7565839205975953,0.7282794781468007,0.6977777529611566,0.6645339551379934,0.6286482657480785,0.6131998704059101,0.6518833226281433,0.7072643532672618,0.7554163023648004,0.7546784302484475,0.7412234693815842,0.7114813817998769,0.6834324351776961,0.7232586191383559,0.7612598250073381,0.7303988136518231,0.6328785150940137,0.5201633668535666,0.41304120393752286,0.30037725045218955,0.20728851966371264,0.10503111791810871,0.009814055185484838,0.027252009910418984,0.13587576393987755,0.25372040956235375,0.3681013223456293,0.47581211158516035,0.5925830837001624,0.7014128445306052,0.7669726313200276,0.7396941687402554,0.7166730515758604,0.7268192097773645,0.7039218141192005,0.6593777774089091,0.6358760008702908,0.6584689010289588,0.7111300475136695,0.7515167024549843,0.7618251718598523,0.7365727224813401,0.692915424451882,0.6612543052887998,0.7099895243464436,0.7641407814312056,0.755347620579909,0.6851631995619576,0.5762721946142857,0.4671308938889791,0.3507957623625002,0.2434609907916414,0.129720096878863,0.03713989339511614,0.05905713163728188,0.17073828559021953,0.27902272795854066,0.3925747268840116,0.5085007344200616,0.6145659386581921,0.7098609408460435,0.7516581954361696,0.7259266969689715,0.7057852527672142,0.6760553149292521,0.6345970851345426,0.5984371775236237,0.5831500291890419,0.6050450969026955,0.6541569211871818,0.6950336592353203,0.6938312464566196,0.6851159406124141,0.63867319044148,0.6121500502971633,0.6551792914233541,0.6977273623477818,0.679902968318834,0.5813618415870179,0.4743570609428145,0.3591580362827569,0.2490670627925775,0.15884273213284583,0.05388188842279207,0.0,0.07573944337446137,0.19143515866653882,0.292740835847624,0.39906113188376424,0.5147751812695731,0.6217626727584269,0.7298178612837034,0.7859656767982524,0.757529337529242,0.7271010158099906,0.676973849472758,0.6873480723233281,0.7297289385992551,0.737074538993127,0.7441212885123407,0.7358179283010637,0.6897222960824372,0.6447972516950278,0.638964049150202,0.6692495910812675,0.7117101143405586,0.7464442563133835,0.7739625726146959,0.8204763644662274,0.8988701278818334,0.8950804340186098,0.7905283631256455,0.6754778387798426,0.6310638124365984,0.7186901714480689,0.7992630460370631,0.8173011323507418,0.8126100599139272,0.7641858983266474,0.7337553858945174,0.7756452071790434,0.8011549755358336,0.8079633009216864,0.8041342030142873,0.766710795429353,0.7130828340345039,0.6801458559450662,0.7108651076835326,0.755702874990847,0.7827935093173017,0.7772927750152518,0.8044728202948386,0.8702960173711147,0.9369030851256335,0.9043895229147945,0.7953293590013406,0.6879215667986125,0.5725312792450594,0.518213185966254,0.6036106810562705,0.711643082783832,0.8020317526576168,0.8186252034094827,0.817745011898851,0.7766344147680388,0.7316689508674294,0.7666472918096041,0.8059614455511939,0.8051587653132983,0.8175643499686969,0.7979108186828665,0.746924155118809,0.6923896477349618,0.6644405384020182,0.6992215815267604,0.7292952765114411,0.7632997786450983,0.7922648476587992,0.8330626143437716,0.9188687995520157,0.9992565681287997,0.962555332515947,0.8549713584332752,0.7453780314385325,0.627922719525366,0.5346944855787685,0.5808632965903768,0.688924065547911,0.7769325543223966,0.7941769215504546,0.7651439697035098,0.7205891729572367,0.7292723174540667,0.77657708749106,0.7770744670647731,0.7667396653131207,0.7590016539005993,0.714875741638964,0.6553645122900551,0.607646004446136,0.6311723565211385,0.6829836990333302,0.717064360578181,0.7464042773852826,0.7771885960604503,0.8384371515520399,0.9345387832012009,1.0000000000000002,0.9407639803196426,0.8324058458456285,0.7184754789938907,0.6443396502115195,0.7061678041455568,0.7829932644331385,0.7909552795537815,0.7786293842126317,0.7313844509321015,0.6878218641623721,0.72671353868207,0.7484885202649434,0.7547585642450734
0,1,2,3,4,5,6,7,8,9,10,11,12,13,14,15,16,17,18,19,20,21,22,23,24,25,26,27,28,29,30,31,32,33,34,35,36,37,38,39,40,41,42,43,44,45,46,47,48,49,50,51,52,53,54,55,56,57,58,59,60,61,62,63,64,65,66,67,68,69,70,71,72,73,74,75,76,77,78,79,80,81,82,83,84,85,86,87,88,89,90,91,92,93,94,95,96,97,98,99,100,101,102,103,104,105,106,107,108,109,110,111,112,113,114,115,116,117,118,119,120,121,122,123,124,125,126,127,128,129,130,131,132,133,134,135,136,137,138,139,140,141,142,143,144,145,146,147,148,149,150,151,152,153,154,155,156,157,158,159,160,161,162,163,164,165,166,167,168,169,170,171,172,173,174,175,176,177,178,179,180,181,182,183,184,185,186,187,188,189,190,191,192,193,194,195,196,197,198,199,200,201,202,203,204,205,206,207,208,209,210,211,212,213,214,215,216,217,218,219,220,221,222,223,224,225,226,227,228,229,230,231,232,233,234,235,236,237,238,239,240,241,242,243,244,245,246,247,248,249,250,251,252,253,254
0.7030723356314146,0.6897431133971768,0.6494362366982165,0.6160099670086161,0.6635078824390195,0.7203528289244916,0.7229973629044226,0.6624748398100697,0.5580984532705255,0.4437545696958882,0.32838370008627327,0.22116629689765865,0.10536841360115545,0.01615734471872665,0.04420187841319656,0.15143060834445587,0.2691969044963034,0.387100585956351,0.5033951692528429,0.610467645847286,0.7243907684626631,0.7775048700422194,0.7361641107438224,0.7066305441163341,0.6838183962608284,0.6507983068987107,0.6088912157547541,0.5645509854697901,0.5596504037972962,0.608760570426093,0.6691500464202973,0.710432903056996,0.7164211862629879,0.7260563963399929,0.7036313259376732,0.6527917553398217,0.6627973824432598,0.7084946407366337,0.7376873408406965,0.6909723651237301,0.5839057726203694,0.4759883930800084,0.3621747160566968,0.2456023379607415,0.13869417081508306,0.046602506284487255,0.0751981844048828,0.1879288643569501,0.30514128616231617,0.4132367323413797,0.527079720846974,0.6445197368903,0.7506808975456771,0.7912997148447214,0.7565839205975953,0.7282794781468007,0.6977777529611566,0.6645339551379934,0.6286482657480785,0.6131998704059101,0.6518833226281433,0.7072643532672618,0.7554163023648004,0.7546784302484475,0.7412234693815842,0.7114813817998769,0.6834324351776961,0.7232586191383559,0.7612598250073381,0.7303988136518231,0.6328785150940137,0.5201633668535666,0.41304120393752286,0.30037725045218955,0.20728851966371264,0.10503111791810871,0.009814055185484838,0.027252009910418984,0.13587576393987755,0.25372040956235375,0.3681013223456293,0.47581211158516035,0.5925830837001624,0.7014128445306052,0.7669726313200276,0.7396941687402554,0.7166730515758604,0.7268192097773645,0.7039218141192005,0.6593777774089091,0.6358760008702908,0.6584689010289588,0.7111300475136695,0.7515167024549843,0.7618251718598523,0.7365727224813401,0.692915424451882,0.6612543052887998,0.7099895243464436,0.7641407814312056,0.755347620579909,0.6851631995619576,0.5762721946142857,0.4671308938889791,0.3507957623625002,0.2434609907916414,0.129720096878863,0.03713989339511614,0.05905713163728188,0.17073828559021953,0.27902272795854066,0.3925747268840116,0.5085007344200616,0.6145659386581921,0.7098609408460435,0.7516581954361696,0.7259266969689715,0.7057852527672142,0.6760553149292521,0.6345970851345426,0.5984371775236237,0.5831500291890419,0.6050450969026955,0.6541569211871818,0.6950336592353203,0.6938312464566196,0.6851159406124141,0.63867319044148,0.6121500502971633,0.6551792914233541,0.6977273623477818,0.679902968318834,0.5813618415870179,0.4743570609428145,0.3591580362827569,0.2490670627925775,0.15884273213284583,0.05388188842279207,0.0,0.07573944337446137,0.19143515866653882,0.292740835847624,0.39906113188376424,0.5147751812695731,0.6217626727584269,0.7298178612837034,0.7859656767982524,0.757529337529242,0.7271010158099906,0.676973849472758,0.6873480723233281,0.7297289385992551,0.737074538993127,0.7441212885123407,0.7358179283010637,0.6897222960824372,0.6447972516950278,0.638964049150202,0.6692495910812675,0.7117101143405586,0.7464442563133835,0.7739625726146959,0.8204763644662274,0.8988701278818334,0.8950804340186098,0.7905283631256455,0.6754778387798426,0.6310638124365984,0.7186901714480689,0.7992630460370631,0.8173011323507418,0.8126100599139272,0.7641858983266474,0.7337553858945174,0.7756452071790434,0.8011549755358336,0.8079633009216864,0.8041342030142873,0.766710795429353,0.7130828340345039,0.6801458559450662,0.7108651076835326,0.755702874990847,0.7827935093173017,0.7772927750152518,0.8044728202948386,0.8702960173711147,0.9369030851256335,0.9043895229147945,0.7953293590013406,0.6879215667986125,0.5725312792450594,0.518213185966254,0.6036106810562705,0.711643082783832,0.8020317526576168,0.8186252034094827,0.817745011898851,0.7766344147680388,0.7316689508674294,0.7666472918096041,0.8059614455511939,0.8051587653132983,0.8175643499686969,0.7979108186828665,0.746924155118809,0.6923896477349618,0.6644405384020182,0.6992215815267604,0.7292952765114411,0.7632997786450983,0.7922648476587992,0.8330626143437716,0.9188687995520157,0.9992565681287997,0.962555332515947,0.8549713584332752,0.7453780314385325,0.627922719525366,0.5346944855787685,0.5808632965903768,0.688924065547911,0.7769325543223966,0.7941769215504546,0.7651439697035098,0.7205891729572367,0.7292723174540667,0.77657708749106,0.7770744670647731,0.7667396653131207,0.7590016539005993,0.714875741638964,0.6553645122900551,0.607646004446136,0.6311723565211385,0.6829836990333302,0.717064360578181,0.7464042773852826,0.7771885960604503,0.8384371515520399,0.9345387832012009,1.0000000000000002,0.9407639803196426,0.8324058458456285,0.7184754789938907,0.6443396502115195,0.7061678041455568,0.7829932644331385,0.7909552795537815,0.7786293842126317,0.7313844509321015,0.6878218641623721,0.72671353868207,0.7484885202649434,0.7547585642450734
0,1,2,3,4,5,6,7,8,9,10,11,12,13,14,15,16,17,18,19,20,21,22,23,24,25,26,27,28,29,30,31,32,33,34,35,36,37,38,39,40,41,42,43,44,45,46,47,48,49,50,51,52,53,54,55,56,57,58,59,60,61,62,63,64,65,66,67,68,69,70,71,72,73,74,75,76,77,78,79,80,81,82,83,84,85,86,87,88,89,90,91,92,93,94,95,96,97,98,99,100,101,102,103,104,105,106,107,108,109,110,111,112,113,114,115,116,117,118,119,120,121,122,123,124,125,126,127,128,129,130,131,132,133,134,135,136,137,138,139,140,141,142,143,144,145,146,147,148,149,150,151,152,153,154,155,156,157,158,159,160,161,162,163,164,165,166,167,168,169,170,171,172,173,174,175,176,177,178,179,180,181,182,183,184,185,186,187,188,189,190,191,192,193,194,195,196,197,198,199,200,201,202,203,204,205,206,207,208,209,210,211,212,213,214,215,216,217,218,219,220,221,222,223,224,225,226,227,228,229,230,231,232,233,234,235,236,237,238,239,240,241,242,243,244,245,246,247,248,249,250,251,252,253,254
0.8683802188317968,0.8580755972300609,0.8648675799591801,0.8682116911261457,0.8545640503275929,0.8602969964864386,0.8940180904880988,0.9135710265973218,0.8718760971777817,0.7996832845125492,0.7199170261662406,0.6431169218614377,0.5683939418526511,0.48800675223106427,0.4093774965415462,0.33599273962499754,0.25615444181615565,0.17844204033120437,0.1046451856651639,0.039924026691429915,0.06087996019855668,0.1319336936350768,0.2119809637861536,0.29156872863865835,0.3647677854272593,0.44385410533482816,0.5243082340793981,0.5991404812733068,0.6658030110870339,0.7329567110633286,0.8052728480710394,0.8709665956708672,0.9148380630235531,0.9240528253357365,0.9126934455689037,0.8852775999999052,0.8460563279534585,0.8112263374745139,0.7988610605001991,0.8288391796622174,0.8730009778616938,0.9040667391525035,0.9068752426829021,0.8813987782176003,0.8659338529022491,0.8486554719626198,0.8397839937571698,0.8523153026328765,0.88278517548806,0.9278084259267061,0.9282901091517426,0.8933994081679704,0.8458371695664817,0.786703259188287,0.7127686640758382,0.6340311359534587,0.5607547041115464,0.4810519445972785,0.40051005732183964,0.3244990602946376,0.24903976107272907,0.16855213936701785,0.08974198404775446,0.019399449779458955,0.0,0.06377620075231016,0.13864999274544065,0.21901411953740513,0.2955108116288643,0.37050995397679354,0.45095031190537527,0.5310401959669981,0.6047425648993763,0.6822592558814922,0.7532678479376473,0.809778792268691,0.8324060988033948,0.8271219315441398,0.8228888169785704,0.8012177785248253,0.7905958443809096,0.807281513260224,0.8445274033574119,0.8766490477905382,0.8863377450913132,0.8920029091990012,0.8944094388902608,0.898141484556894,0.9122905167824316,0.9310932526741889,0.9427656049818169,0.9479472511938121,0.9495348114962496,0.9446082735900916,0.9381539228508142,0.9369252429060404,0.9245429063177,0.9020426687636196,0.887771874919262,0.9075606834973129,0.9386287516583978,0.9277861938338432,0.8594830025994491,0.7853242617639311,0.7050294723272388,0.6243871352233439,0.5437447296345368,0.46310791752036673,0.384086052153094,0.310860806884911,0.2312397496510834,0.15225491291906101,0.07916811958612824,0.015659290021175165,0.03720126685083058,0.10723576359592502,0.18657790513961092,0.2670905054002253,0.34276511025783396,0.41855607640047654,0.4990797425220641,0.5783522967933574,0.6515342761234688,0.7288382859565377,0.8015891992077719,0.8626618699002655,0.8892175605033701,0.8910178583377384,0.8746477898455469,0.852185031350893,0.8193894063995086,0.7900707967440153,0.7936225075629919,0.8236347391087178,0.8573712643727862,0.8670430497668533,0.8721787139584163,0.875753256775001,0.8872374572232551,0.9069162954058592,0.9180604918125326,0.9428451184419748,0.9315078771452925,0.905534936605858,0.9017827743894535,0.8986094359238066,0.8903650635395559,0.8723760063985873,0.8373813839729478,0.8183248455620817,0.8443726559673523,0.8759384255321967,0.9019756490852493,0.9197553493376247,0.9251242513135212,0.9166496997939579,0.8930197247943223,0.8402723472746487,0.77258823344006,0.6966531698874447,0.6226195151105329,0.5450983211303455,0.4667427733600302,0.4464633312312436,0.5161420522984737,0.5967254903154009,0.6758115771127038,0.7472129593874599,0.8078643670883872,0.8649864340503428,0.9372140246440268,0.9999999999999998,0.9967689551581613,0.9613686125882188,0.9302708978834628,0.930664763049982,0.9502580711472848,0.9642180932118747,0.9696770990205359,0.9760446243052008,0.9828677603476608,0.9800274153832798,0.9738557942723822,0.9677182029418268,0.9510023832566061,0.9316316159804137,0.9282280781670849,0.9279438492572762,0.9232782449183008,0.9180411963880557,0.9001788128332697,0.8670068973732656,0.8333023017332015,0.8286601480782718,0.8479912172196755,0.8573452699517945,0.8639391992085694,0.8609102677275584,0.833258401712085,0.7777434734613846,0.7088454012136085,0.6293559173871504,0.5487158906490832,0.46901617894022785,0.431244691756014,0.49256019463683076,0.5727706265049703,0.6474516284030298,0.7242381481969695,0.8008666305066505,0.8734566597796221,0.9350030144133519,0.9483837027148676,0.9620826034635015,0.9793462103280866,0.9526207652351995,0.9055902191102831,0.8780054831220618,0.8747773965713928,0.8906730433175252,0.9117280569242234,0.9323645189242626,0.9449322244086051,0.9218380573174487,0.8843376917702472,0.8445527180297014,0.846037384841184,0.8790526284241058,0.9170170705306795,0.9417812830045253,0.9591617428142762,0.9563451913807135,0.9373536719888116,0.8950649216137188,0.8328796297503094,0.7627332633598811,0.684188195179882,0.6035558468275306,0.5235952172589178,0.48056388419272844,0.5384024456177443,0.6187448313119304,0.6959359269548615,0.770304649535126,0.8480916261991926,0.9186986092348557,0.9682522296577047,0.9519595082446846,0.9253863839488099,0.894958448315909,0.8924146032671723,0.9047932709686766,0.8980454848663235,0.8905296013944377,0.9005693305368323
0,1,2,3,4,5,6,7,8,9,10,11,12,13,14,15,16,17,18,19,20,21,22,23,24,25,26,27,28,29,30,31,32,33,34,35,36,37,38,39,40,41,42,43,44,45,46,47,48,49,50,51,52,53,54,55,56,57,58,59,60,61,62,63,64,65,66,67,68,69,70,71,72,73,74,75,76,77,78,79,80,81,82,83,84,85,86,87,88,89,90,91,92,93,94,95,96,97,98,99,100,101,102,103,104,105,106,107,108,109,110,111,112,113,114,115,116,117,118,119,120,121,122,123,124,125,126,127,128,129,130,131,132,133,134,135,136,137,138,139,140,141,142,143,144,145,146,147,148,149,150,151,152,153,154,155,156,157,158,159,160,161,162,163,164,165,166,167,168,169,170,171,172,173,174,175,176,177,178,179,180,181,182,183,184,185,186,187,188,189,190,191,192,193,194,195,196,197,198,199,200,201,202,203,204,205,206,207,208,209,210,211,212,213,214,215,216,217,218,219,220,221,222,223,224,225,226,227,228,229,230,231,232,233,234,235,236,237,238,239,240,241,242,243,244,245,246,247,248,249,250,251,252,253,254
0.77406260351895,0.731648120606837,0.6790315832320821,0.6264833352938093,0.604717263193715,0.616021334361087,0.6263902478937717,0.6311364994938418,0.6388278543472292,0.6534527651481101,0.6440884749518052,0.6000173512716167,0.560380778028321,0.5358469685715097,0.5369984524605658,0.5552475805695327,0.5536719268105414,0.5487357049261103,0.5607824291069778,0.5614112914071974,0.5597585417038429,0.5614417708573953,0.54761178037536,0.545335876200786,0.5464568754691175,0.5491770909659681,0.5385890537631719,0.5201867504858027,0.5115846169302412,0.5136050292893839,0.520568945037676,0.5317157248873239,0.5140749919833942,0.47332302735641774,0.41255438040051606,0.34374977116293315,0.27313503771437353,0.19501785568108354,0.11948084669112946,0.05301248900796929,0.02455477124142269,0.058203734620720704,0.12985283349989984,0.2061360361643978,0.2754618669638458,0.35293602226051046,0.43139563339063836,0.5098546328671569,0.5871412108327074,0.6563746853425634,0.7329757895245568,0.8095245372317537,0.8286868600111152,0.7748494024838857,0.7174002372853379,0.6722301901591468,0.6216661110164583,0.5731120559038436,0.5410713319158289,0.5301599828040844,0.5387096248004946,0.5511491279085552,0.566445027504179,0.5851498325112312,0.5831784032634675,0.5465653105212784,0.5037857583490062,0.4825669486053803,0.4988618444588071,0.5125711043621219,0.5158291302779958,0.5195437160148391,0.5340135419918235,0.5489309731269987,0.565363850770982,0.5675459625840424,0.5620094379367522,0.5594210090572298,0.5608124358022002,0.5522722957627162,0.5423801745377645,0.5403729929496921,0.5431984307683655,0.5585792269645371,0.5681049451931439,0.5479697882085979,0.4869241571528393,0.4175804656303084,0.3397534656171086,0.2613721352714069,0.18833794298121642,0.11648769933181824,0.04239782063242847,0.0,0.03450132431200803,0.10536251118121509,0.18363925328662778,0.2595108032279039,0.3290793649745798,0.4067659104073187,0.48522614196963065,0.5636862700043144,0.6413871242218361,0.7109574340126359,0.7867217364896251,0.8475958482535211,0.8165113653103255,0.7636004407703834,0.7210619519915336,0.6689713250571991,0.6135555387129037,0.5827504847842364,0.5762415148408648,0.5763287051819439,0.5888533898530885,0.5970856091302179,0.6106213790183268,0.5916169298878982,0.5542388148082857,0.5155543215577489,0.493277916609,0.5046378868516357,0.5180403754617651,0.5280983767904031,0.5320857892636417,0.5347249514861663,0.5351202305386946,0.5427876743699709,0.5494166605021655,0.5626217548590138,0.5648827605555489,0.5651270986464356,0.5745302880882772,0.608441375985626,0.6228458894906754,0.6109165152235823,0.6009698732140765,0.6032819943077892,0.5965428323584747,0.5876038545393689,0.5875970055161892,0.5883049371663052,0.5770269665368672,0.5734017836979552,0.5667415654888985,0.5653237435690526,0.5515866185054981,0.5379701248191864,0.5644768087795209,0.6064879674270618,0.6401520839909589,0.6540143617904739,0.6410995477980423,0.6234576041273143,0.6172199649806192,0.6161718828499014,0.6268297526339619,0.6759628190977371,0.7334125051121585,0.7781707864488185,0.8234087037625859,0.8816803180858745,0.9425814361783187,0.9630896234952762,0.911036503265598,0.8366137779709379,0.7627705789997064,0.6916748384790015,0.6134764868057248,0.5350163664891812,0.45814370958533956,0.43527741132326137,0.495322727110278,0.5596981101074949,0.6050656161835077,0.6075156527293821,0.5952333802682259,0.5797904628653445,0.5754965815738646,0.5834577881955474,0.5934410237107295,0.6003407333039317,0.5994724555802577,0.6063189995692191,0.6063617916386173,0.5979130389454077,0.5835325895906001,0.5715759926216315,0.5580631707062131,0.5569739056715866,0.5447792520518371,0.5306790452647623,0.5361192707617513,0.5783603185622976,0.6158870972001933,0.6292921109686176,0.6138855131458565,0.594670590684035,0.5799575280155305,0.5720981882005638,0.5832552901798504,0.6188048999554245,0.671935992096427,0.7205676671498147,0.7683078737732678,0.8249435594743468,0.890341796031141,0.9610022256554849,0.9999999999999998,0.9641939629790117,0.896626148696692,0.8216088062611806,0.7434199433038742,0.6721907129070821,0.5984588303975651,0.5200548177615758,0.4417331762051553,0.3830939559414983,0.419618997446666,0.48524419652134276,0.5409717197637327,0.5625045792039838,0.567961661037778,0.565313389928124,0.5562058839663295,0.5636023473100604,0.5663770022329,0.5807227913556237,0.5950247976729297,0.5974593083282371,0.5911068822375334,0.5860472973880586,0.5941913361781392,0.6034631469471246,0.599537291786101,0.6054933262539344,0.598936817362749,0.595191452362003,0.6013736775332521,0.582767791010103,0.5757475796634768,0.603727759933639,0.6441183643871182,0.6831382536110293,0.6892468736778248,0.6739398489209003,0.6670193119751746,0.6614940299690242,0.6518607808755197,0.6431222758451189,0.6804773982303074,0.732240762345963,0.7786855641246888,0.8261120905703423,0.8771409366943097
0,1,2,3,4,5,6,7,8,9,10,11,12,13,14,15,16,17,18,19,20,21,22,23,24,25,26,27,28,29,30,31,32,33,34,35,36,37,38,39,40,41,42,43,44,45,46,47,48,49,50,51,52,53,54,55,56,57,58,59,60,61,62,63,64,65,66,67,68,69,70,71,72,73,74,75,76,77,78,79,80,81,82,83,84,85,86,87,88,89,90,91,92,93,94,95,96,97,98,99,100,101,102,103,104,105,106,107,108,109,110,111,112,113,114,115,116,117,118,119,120,121,122,123,124,125,126,127,128,129,130,131,132,133,134,135,136,137,138,139,140,141,142,143,144,145,146,147,148,149,150,151,152,153,154,155,156,157,158,159,160,161,162,163,164,165,166,167,168,169,170,171,172,173,174,175,176,177,178,179,180,181,182,183,184,185,186,187,188,189,190,191,192,193,194,195,196,197,198,199,200,201,202,203,204,205,206,207,208,209,210,211,212,213,214,215,216,217,218,219,220,221,222,223,224,225,226,227,228,229,230,231,232,233,234,235,236,237,238,239,240,241,242,243,244,245,246,247,248,249,250,251,252,253,254
0.77406260351895,0.731648120606837,0.6790315832320821,0.6264833352938093,0.604717263193715,0.616021334361087,0.6263902478937717,0.6311364994938418,0.6388278543472292,0.6534527651481101,0.6440884749518052,0.6000173512716167,0.560380778028321,0.5358469685715097,0.5369984524605658,0.5552475805695327,0.5536719268105414,0.5487357049261103,0.5607824291069778,0.5614112914071974,0.5597585417038429,0.5614417708573953,0.54761178037536,0.545335876200786,0.5464568754691175,0.5491770909659681,0.5385890537631719,0.5201867504858027,0.5115846169302412,0.5136050292893839,0.520568945037676,0.5317157248873239,0.5140749919833942,0.47332302735641774,0.41255438040051606,0.34374977116293315,0.27313503771437353,0.19501785568108354,0.11948084669112946,0.05301248900796929,0.02455477124142269,0.058203734620720704,0.12985283349989984,0.2061360361643978,0.2754618669638458,0.35293602226051046,0.43139563339063836,0.5098546328671569,0.5871412108327074,0.6563746853425634,0.7329757895245568,0.8095245372317537,0.8286868600111152,0.7748494024838857,0.7174002372853379,0.6722301901591468,0.6216661110164583,0.5731120559038436,0.5410713319158289,0.5301599828040844,0.5387096248004946,0.5511491279085552,0.566445027504179,0.5851498325112312,0.5831784032634675,0.5465653105212784,0.5037857583490062,0.4825669486053803,0.4988618444588071,0.5125711043621219,0.5158291302779958,0.5195437160148391,0.5340135419918235,0.5489309731269987,0.565363850770982,0.5675459625840424,0.5620094379367522,0.5594210090572298,0.5608124358022002,0.5522722957627162,0.5423801745377645,0.5403729929496921,0.5431984307683655,0.5585792269645371,0.5681049451931439,0.5479697882085979,0.4869241571528393,0.4175804656303084,0.3397534656171086,0.2613721352714069,0.18833794298121642,0.11648769933181824,0.04239782063242847,0.0,0.03450132431200803,0.10536251118121509,0.18363925328662778,0.2595108032279039,0.3290793649745798,0.4067659104073187,0.48522614196963065,0.5636862700043144,0.6413871242218361,0.7109574340126359,0.7867217364896251,0.8475958482535211,0.8165113653103255,0.7636004407703834,0.7210619519915336,0.6689713250571991,0.6135555387129037,0.5827504847842364,0.5762415148408648,0.5763287051819439,0.5888533898530885,0.5970856091302179,0.6106213790183268,0.5916169298878982,0.5542388148082857,0.5155543215577489,0.493277916609,0.5046378868516357,0.5180403754617651,0.5280983767904031,0.5320857892636417,0.5347249514861663,0.5351202305386946,0.5427876743699709,0.5494166605021655,0.5626217548590138,0.5648827605555489,0.5651270986464356,0.5745302880882772,0.608441375985626,0.6228458894906754,0.6109165152235823,0.6009698732140765,0.6032819943077892,0.5965428323584747,0.5876038545393689,0.5875970055161892,0.5883049371663052,0.5770269665368672,0.5734017836979552,0.5667415654888985,0.5653237435690526,0.5515866185054981,0.5379701248191864,0.5644768087795209,0.6064879674270618,0.6401520839909589,0.6540143617904739,0.6410995477980423,0.6234576041273143,0.6172199649806192,0.6161718828499014,0.6268297526339619,0.6759628190977371,0.7334125051121585,0.7781707864488185,0.8234087037625859,0.8816803180858745,0.9425814361783187,0.9630896234952762,0.911036503265598,0.8366137779709379,0.7627705789997064,0.6916748384790015,0.6134764868057248,0.5350163664891812,0.45814370958533956,0.43527741132326137,0.495322727110278,0.5596981101074949,0.6050656161835077,0.6075156527293821,0.5952333802682259,0.5797904628653445,0.5754965815738646,0.5834577881955474,0.5934410237107295,0.6003407333039317,0.5994724555802577,0.6063189995692191,0.6063617916386173,0.5979130389454077,0.5835325895906001,0.5715759926216315,0.5580631707062131,0.5569739056715866,0.5447792520518371,0.5306790452647623,0.5361192707617513,0.5783603185622976,0.6158870972001933,0.6292921109686176,0.6138855131458565,0.594670590684035,0.5799575280155305,0.5720981882005638,0.5832552901798504,0.6188048999554245,0.671935992096427,0.7205676671498147,0.7683078737732678,0.8249435594743468,0.890341796031141,0.9610022256554849,0.9999999999999998,0.9641939629790117,0.896626148696692,0.8216088062611806,0.7434199433038742,0.6721907129070821,0.5984588303975651,0.5200548177615758,0.4417331762051553,0.3830939559414983,0.419618997446666,0.48524419652134276,0.5409717197637327,0.5625045792039838,0.567961661037778,0.565313389928124,0.5562058839663295,0.5636023473100604,0.5663770022329,0.5807227913556237,0.5950247976729297,0.5974593083282371,0.5911068822375334,0.5860472973880586,0.5941913361781392,0.6034631469471246,0.599537291786101,0.6054933262539344,0.598936817362749,0.595191452362003,0.6013736775332521,0.582767791010103,0.5757475796634768,0.603727759933639,0.6441183643871182,0.6831382536110293,0.6892468736778248,0.6739398489209003,0.6670193119751746,0.6614940299690242,0.6518607808755197,0.6431222758451189,0.6804773982303074,0.732240762345963,0.7786855641246888,0.8261120905703423,0.8771409366943097
0,1,2,3,4,5,6,7,8,9,10,11,12,13,14,15,16,17,18,19,20,21,22,23,24,25,26,27,28,29,30,31,32,33,34,35,36,37,38,39,40,41,42,43,44,45,46,47,48,49,50,51,52,53,54,55,56,57,58,59,60,61,62,63,64,65,66,67,68,69,70,71,72,73,74,75,76,77,78,79,80,81,82,83,84,85,86,87,88,89,90,91,92,93,94,95,96,97,98,99,100,101,102,103,104,105,106,107,108,109,110,111,112,113,114,115,116,117,118,119,120,121,122,123,124,125,126,127,128,129,130,131,132,133,134,135,136,137,138,139,140,141,142,143,144,145,146,147,148,149,150,151,152,153,154,155,156,157,158,159,160,161,162,163,164,165,166,167,168,169,170,171,172,173,174,175,176,177,178,179,180,181,182,183,184,185,186,187,188,189,190,191,192,193,194,195,196,197,198,199,200,201,202,203,204,205,206,207,208,209,210,211,212,213,214,215,216,217,218,219,220,221,222,223,224,225,226,227,228,229,230,231,232,233,234,235,236,237,238,239,240,241,242,243,244,245,246,247,248,249,250,251,252,253,254
0.77406260351895,0.731648120606837,0.6790315832320821,0.6264833352938093,0.604717263193715,0.616021334361087,0.6263902478937717,0.6311364994938418,0.6388278543472292,0.6534527651481101,0.6440884749518052,0.6000173512716167,0.560380778028321,0.5358469685715097,0.5369984524605658,0.5552475805695327,0.5536719268105414,0.5487357049261103,0.5607824291069778,0.5614112914071974,0.5597585417038429,0.5614417708573953,0.54761178037536,0.545335876200786,0.5464568754691175,0.5491770909659681,0.5385890537631719,0.5201867504858027,0.5115846169302412,0.5136050292893839,0.520568945037676,0.5317157248873239,0.5140749919833942,0.47332302735641774,0.41255438040051606,0.34374977116293315,0.27313503771437353,0.19501785568108354,0.11948084669112946,0.05301248900796929,0.02455477124142269,0.058203734620720704,0.12985283349989984,0.2061360361643978,0.2754618669638458,0.35293602226051046,0.43139563339063836,0.5098546328671569,0.5871412108327074,0.6563746853425634,0.7329757895245568,0.8095245372317537,0.8286868600111152,0.7748494024838857,0.7174002372853379,0.6722301901591468,0.6216661110164583,0.5731120559038436,0.5410713319158289,0.5301599828040844,0.5387096248004946,0.5511491279085552,0.566445027504179,0.5851498325112312,0.5831784032634675,0.5465653105212784,0.5037857583490062,0.4825669486053803,0.4988618444588071,0.5125711043621219,0.5158291302779958,0.5195437160148391,0.5340135419918235,0.5489309731269987,0.565363850770982,0.5675459625840424,0.5620094379367522,0.5594210090572298,0.5608124358022002,0.5522722957627162,0.5423801745377645,0.5403729929496921,0.5431984307683655,0.5585792269645371,0.5681049451931439,0.5479697882085979,0.4869241571528393,0.4175804656303084,0.3397534656171086,0.2613721352714069,0.18833794298121642,0.11648769933181824,0.04239782063242847,0.0,0.03450132431200803,0.10536251118121509,0.18363925328662778,0.2595108032279039,0.3290793649745798,0.4067659104073187,0.48522614196963065,0.5636862700043144,0.6413871242218361,0.7109574340126359,0.7867217364896251,0.8475958482535211,0.8165113653103255,0.7636004407703834,0.7210619519915336,0.6689713250571991,0.6135555387129037,0.5827504847842364,0.5762415148408648,0.5763287051819439,0.5888533898530885,0.5970856091302179,0.6106213790183268,0.5916169298878982,0.5542388148082857,0.5155543215577489,0.493277916609,0.5046378868516357,0.5180403754617651,0.5280983767904031,0.5320857892636417,0.5347249514861663,0.5351202305386946,0.5427876743699709,0.5494166605021655,0.5626217548590138,0.5648827605555489,0.5651270986464356,0.5745302880882772,0.608441375985626,0.6228458894906754,0.6109165152235823,0.6009698732140765,0.6032819943077892,0.5965428323584747,0.5876038545393689,0.5875970055161892,0.5883049371663052,0.5770269665368672,0.5734017836979552,0.5667415654888985,0.5653237435690526,0.5515866185054981,0.5379701248191864,0.5644768087795209,0.6064879674270618,0.6401520839909589,0.6540143617904739,0.6410995477980423,0.6234576041273143,0.6172199649806192,0.6161718828499014,0.6268297526339619,0.6759628190977371,0.7334125051121585,0.7781707864488185,0.8234087037625859,0.8816803180858745,0.9425814361783187,0.9630896234952762,0.911036503265598,0.8366137779709379,0.7627705789997064,0.6916748384790015,0.6134764868057248,0.5350163664891812,0.45814370958533956,0.43527741132326137,0.495322727110278,0.5596981101074949,0.6050656161835077,0.6075156527293821,0.5952333802682259,0.5797904628653445,0.5754965815738646,0.5834577881955474,0.5934410237107295,0.6003407333039317,0.5994724555802577,0.6063189995692191,0.6063617916386173,0.5979130389454077,0.5835325895906001,0.5715759926216315,0.5580631707062131,0.5569739056715866,0.5447792520518371,0.5306790452647623,0.5361192707617513,0.5783603185622976,0.6158870972001933,0.6292921109686176,0.6138855131458565,0.594670590684035,0.5799575280155305,0.5720981882005638,0.5832552901798504,0.6188048999554245,0.671935992096427,0.7205676671498147,0.7683078737732678,0.8249435594743468,0.890341796031141,0.9610022256554849,0.9999999999999998,0.9641939629790117,0.896626148696692,0.8216088062611806,0.7434199433038742,0.6721907129070821,0.5984588303975651,0.5200548177615758,0.4417331762051553,0.3830939559414983,0.419618997446666,0.48524419652134276,0.5409717197637327,0.5625045792039838,0.567961661037778,0.565313389928124,0.5562058839663295,0.5636023473100604,0.5663770022329,0.5807227913556237,0.5950247976729297,0.5974593083282371,0.5911068822375334,0.5860472973880586,0.5941913361781392,0.6034631469471246,0.599537291786101,0.6054933262539344,0.598936817362749,0.595191452362003,0.6013736775332521,0.582767791010103,0.5757475796634768,0.603727759933639,0.6441183643871182,0.6831382536110293,0.6892468736778248,0.6739398489209003,0.6670193119751746,0.6614940299690242,0.6518607808755197,0.6431222758451189,0.6804773982303074,0.732240762345963,0.7786855641246888,0.8261120905703423,0.8771409366943097
0,1,2,3,4,5,6,7,8,9,10,11,12,13,14,15,16,17,18,19,20,21,22,23,24,25,26,27,28,29,30,31,32,33,34,35,36,37,38,39,40,41,42,43,44,45,46,47,48,49,50,51,52,53,54,55,56,57,58,59,60,61,62,63,64,65,66,67,68,69,70,71,72,73,74,75,76,77,78,79,80,81,82,83,84,85,86,87,88,89,90,91,92,93,94,95,96,97,98,99,100,101,102,103,104,105,106,107,108,109,110,111,112,113,114,115,116,117,118,119,120,121,122,123,124,125,126,127,128,129,130,131,132,133,134,135,136,137,138,139,140,141,142,143,144,145,146,147,148,149,150,151,152,153,154,155,156,157,158,159,160,161,162,163,164,165,166,167,168,169,170,171,172,173,174,175,176,177,178,179,180,181,182,183,184,185,186,187,188,189,190,191,192,193,194,195,196,197,198,199,200,201,202,203,204,205,206,207,208,209,210,211,212,213,214,215,216,217,218,219,220,221,222,223,224,225,226,227,228,229,230,231,232,233,234,235,236,237,238,239,240,241,242,243,244,245,246,247,248,249,250,251,252,253,254
0.5107793319453242,0.5626353807539681,0.6290789185631365,0.6715366215299368,0.7333897392411659,0.7881140724451625,0.8270544180204669,0.8404640963277232,0.8326735277138733,0.827793904975765,0.8158392820116676,0.82231460466918,0.8379423040417122,0.817800788199379,0.7999070101448598,0.8055071910268816,0.8452224024391379,0.8643636220076985,0.8527194406135348,0.7803331244811176,0.6944221989501169,0.6064673686194759,0.521041073236687,0.4294367608488636,0.3441086539338314,0.2559501958682271,0.16889694502118702,0.08414129683124494,0.01913022529672559,0.047660229040920044,0.13555153300674827,0.22774768122146472,0.3165402909041024,0.40144744589509695,0.4932460573469073,0.58549123652782,0.6777349574420739,0.7688311558882921,0.8389080045200799,0.8726921270074983,0.8790373627148049,0.8557430095670642,0.825107925891041,0.7762972430399384,0.7270473113681131,0.6820759450205396,0.6560017739688373,0.6852917763251603,0.7389572442564427,0.7890516378625339,0.8240393091454914,0.8283397841278124,0.823697566308194,0.8091469347196674,0.8008600316634251,0.8077286215574777,0.8040113974654284,0.7841758449852823,0.7858334605088488,0.8224863782520238,0.8594198106847226,0.8697670970309652,0.8329131081164745,0.7510646169214035,0.6624836466158197,0.5779563019312641,0.4880055673193118,0.412697597929075,0.3351283689833764,0.24853731153871572,0.1623631113505437,0.07638130885637717,0.023924649247721863,0.07899186792411927,0.1662594825576258,0.2518434359185129,0.34380602873253086,0.43605118025400325,0.527849917267301,0.6127035472077556,0.7015476670278162,0.7928008030814115,0.8510792255441284,0.8625631540337033,0.8555683298391532,0.8318938660058395,0.7937735970544415,0.7467440561198417,0.7005073300655564,0.6611094415292775,0.6694631794533303,0.7222138787261629,0.7756326722358005,0.8212383749147898,0.8413582050397801,0.8416005720216828,0.8343911748455377,0.8273993772325687,0.833482718662572,0.8248881387977969,0.8015926773798856,0.811337591152339,0.8506807950649533,0.8769239379940297,0.8670192423672927,0.7955596732304175,0.7081724739819295,0.6239004909365455,0.536953478736311,0.4666187225386649,0.38348198490757546,0.2924988067698375,0.20855316230248433,0.11898482036439217,0.03685267767544609,0.0,0.06613288105153292,0.15063344092900643,0.23948156879318594,0.33169524838580355,0.4239404986909907,0.5161857489961776,0.6084309993013666,0.7006741182620424,0.7901897977000556,0.8361605250326829,0.8584611190077489,0.8625631953230595,0.8437542926679165,0.8037467406569501,0.7533068583261391,0.7023640300680685,0.6623172768978629,0.6656444552564866,0.7157479706461436,0.7735640370095542,0.8123756753822495,0.8421561072281376,0.8436686462678511,0.8043222613609251,0.750969096166848,0.7055137253915333,0.7196481677230571,0.7687213154144084,0.8172444731091533,0.8630438361831989,0.8876189037074269,0.8982684682172852,0.8970847614580659,0.9227867932833775,0.9663341701031607,0.9163227118880874,0.8261550487309008,0.737688277983132,0.6525356864866867,0.5606508768385474,0.4684062674048768,0.37851732630237045,0.3558311514472501,0.43702358862048785,0.5222630795688932,0.6103712989176384,0.6962392080965805,0.7833158672515679,0.86746706667881,0.9371316614885528,0.9341415806695523,0.9102041794230433,0.8963844873868323,0.8546857829642305,0.8400493030867131,0.8606032266584263,0.865643312298616,0.8591177364755875,0.8676291108613776,0.8780155429732734,0.8748434317365394,0.8579193751651928,0.8149472557336725,0.7599599146042986,0.7080685449661162,0.7122396154093527,0.7599541735732869,0.8049958792329059,0.8483061563122847,0.8771792019126639,0.8965129103021106,0.9068103886085646,0.9527606386303269,0.9896503055272801,0.9270200960885422,0.8352732400037024,0.7450324329913769,0.6610367772176193,0.5703444059941378,0.5123430840234084,0.5709789520754516,0.6611436984777663,0.7450197110612986,0.8331589845131648,0.912720860734874,0.9464525775499126,0.9075329495233246,0.8962403091651141,0.8688449743054107,0.8292579204616246,0.8251449940031337,0.8432694674510774,0.8436825967085693,0.8414275336786738,0.8553233768475308,0.8648816534872967,0.860140668836618,0.8422479791744268,0.8015943030939956,0.7450401892566041,0.7023339585938235,0.7202466876958218,0.7682760478272299,0.8184923262811561,0.8624285645930918,0.8898540676432298,0.9104679419388046,0.9122572499504553,0.9473317384198485,1.0,0.962571416434292,0.8731838666718557,0.7809433193498345,0.688698069044646,0.5964765751001055,0.5091793956639927,0.488463830115049,0.5682849277417601,0.6538752479228656,0.7407595697530656,0.8242871570560506,0.9042597544502042,0.9455900864588154,0.9134748097693797,0.8974869338039742,0.8647793309674381,0.8301061912085601,0.8410015787803766,0.8652059915721502,0.8640668842956738,0.8492563784937601,0.85494893312882,0.8613799657403569,0.8755139648767454,0.8687626100904517,0.8474496023337192,0.8056892906730495,0.7517614449683137,0.7021016597491352
0,1,2,3,4,5,6,7,8,9,10,11,12,13,14,15,16,17,18,19,20,21,22,23,24,25,26,27,28,29,30,31,32,33,34,35,36,37,38,39,40,41,42,43,44,45,46,47,48,49,50,51,52,53,54,55,56,57,58,59,60,61,62,63,64,65,66,67,68,69,70,71,72,73,74,75,76,77,78,79,80,81,82,83,84,85,86,87,88,89,90,91,92,93,94,95,96,97,98,99,100,101,102,103,104,105,106,107,108,109,110,111,112,113,114,115,116,117,118,119,120,121,122,123,124,125,126,127,128,129,130,131,132,133,134,135,136,137,138,139,140,141,142,143,144,145,146,147,148,149,150,151,152,153,154,155,156,157,158,159,160,161,162,163,164,165,166,167,168,169,170,171,172,173,174,175,176,177,178,179,180,181,182,183,184,185,186,187,188,189,190,191,192,193,194,195,196,197,198,199,200,201,202,203,204,205,206,207,208,209,210,211,212,213,214,215,216,217,218,219,220,221,222,223,224,225,226,227,228,229,230,231,232,233,234,235,236,237,238,239,240,241,242,243,244,245,246,247,248,249,250,251,252,253,254
0.5107793319453242,0.5626353807539681,0.6290789185631365,0.6715366215299368,0.7333897392411659,0.7881140724451625,0.8270544180204669,0.8404640963277232,0.8326735277138733,0.827793904975765,0.8158392820116676,0.82231460466918,0.8379423040417122,0.817800788199379,0.7999070101448598,0.8055071910268816,0.8452224024391379,0.8643636220076985,0.8527194406135348,0.7803331244811176,0.6944221989501169,0.6064673686194759,0.521041073236687,0.4294367608488636,0.3441086539338314,0.2559501958682271,0.16889694502118702,0.08414129683124494,0.01913022529672559,0.047660229040920044,0.13555153300674827,0.22774768122146472,0.3165402909041024,0.40144744589509695,0.4932460573469073,0.58549123652782,0.6777349574420739,0.7688311558882921,0.8389080045200799,0.8726921270074983,0.8790373627148049,0.8557430095670642,0.825107925891041,0.7762972430399384,0.7270473113681131,0.6820759450205396,0.6560017739688373,0.6852917763251603,0.7389572442564427,0.7890516378625339,0.8240393091454914,0.8283397841278124,0.823697566308194,0.8091469347196674,0.8008600316634251,0.8077286215574777,0.8040113974654284,0.7841758449852823,0.7858334605088488,0.8224863782520238,0.8594198106847226,0.8697670970309652,0.8329131081164745,0.7510646169214035,0.6624836466158197,0.5779563019312641,0.4880055673193118,0.412697597929075,0.3351283689833764,0.24853731153871572,0.1623631113505437,0.07638130885637717,0.023924649247721863,0.07899186792411927,0.1662594825576258,0.2518434359185129,0.34380602873253086,0.43605118025400325,0.527849917267301,0.6127035472077556,0.7015476670278162,0.7928008030814115,0.8510792255441284,0.8625631540337033,0.8555683298391532,0.8318938660058395,0.7937735970544415,0.7467440561198417,0.7005073300655564,0.6611094415292775,0.6694631794533303,0.7222138787261629,0.7756326722358005,0.8212383749147898,0.8413582050397801,0.8416005720216828,0.8343911748455377,0.8273993772325687,0.833482718662572,0.8248881387977969,0.8015926773798856,0.811337591152339,0.8506807950649533,0.8769239379940297,0.8670192423672927,0.7955596732304175,0.7081724739819295,0.6239004909365455,0.536953478736311,0.4666187225386649,0.38348198490757546,0.2924988067698375,0.20855316230248433,0.11898482036439217,0.03685267767544609,0.0,0.06613288105153292,0.15063344092900643,0.23948156879318594,0.33169524838580355,0.4239404986909907,0.5161857489961776,0.6084309993013666,0.7006741182620424,0.7901897977000556,0.8361605250326829,0.8584611190077489,0.8625631953230595,0.8437542926679165,0.8037467406569501,0.7533068583261391,0.7023640300680685,0.6623172768978629,0.6656444552564866,0.7157479706461436,0.7735640370095542,0.8123756753822495,0.8421561072281376,0.8436686462678511,0.8043222613609251,0.750969096166848,0.7055137253915333,0.7196481677230571,0.7687213154144084,0.8172444731091533,0.8630438361831989,0.8876189037074269,0.8982684682172852,0.8970847614580659,0.9227867932833775,0.9663341701031607,0.9163227118880874,0.8261550487309008,0.737688277983132,0.6525356864866867,0.5606508768385474,0.4684062674048768,0.37851732630237045,0.3558311514472501,0.43702358862048785,0.5222630795688932,0.6103712989176384,0.6962392080965805,0.7833158672515679,0.86746706667881,0.9371316614885528,0.9341415806695523,0.9102041794230433,0.8963844873868323,0.8546857829642305,0.8400493030867131,0.8606032266584263,0.865643312298616,0.8591177364755875,0.8676291108613776,0.8780155429732734,0.8748434317365394,0.8579193751651928,0.8149472557336725,0.7599599146042986,0.7080685449661162,0.7122396154093527,0.7599541735732869,0.8049958792329059,0.8483061563122847,0.8771792019126639,0.8965129103021106,0.9068103886085646,0.9527606386303269,0.9896503055272801,0.9270200960885422,0.8352732400037024,0.7450324329913769,0.6610367772176193,0.5703444059941378,0.5123430840234084,0.5709789520754516,0.6611436984777663,0.7450197110612986,0.8331589845131648,0.912720860734874,0.9464525775499126,0.9075329495233246,0.8962403091651141,0.8688449743054107,0.8292579204616246,0.8251449940031337,0.8432694674510774,0.8436825967085693,0.8414275336786738,0.8553233768475308,0.8648816534872967,0.860140668836618,0.8422479791744268,0.8015943030939956,0.7450401892566041,0.7023339585938235,0.7202466876958218,0.7682760478272299,0.8184923262811561,0.8624285645930918,0.8898540676432298,0.9104679419388046,0.9122572499504553,0.9473317384198485,1.0,0.962571416434292,0.8731838666718557,0.7809433193498345,0.688698069044646,0.5964765751001055,0.5091793956639927,0.488463830115049,0.5682849277417601,0.6538752479228656,0.7407595697530656,0.8242871570560506,0.9042597544502042,0.9455900864588154,0.9134748097693797,0.8974869338039742,0.8647793309674381,0.8301061912085601,0.8410015787803766,0.8652059915721502,0.8640668842956738,0.8492563784937601,0.85494893312882,0.8613799657403569,0.8755139648767454,0.8687626100904517,0.8474496023337192,0.8056892906730495,0.7517614449683137,0.7021016597491352
0,1,2,3,4,5,6,7,8,9,10,11,12,13,14,15,16,17,18,19,20,21,22,23,24,25,26,27,28,29,30,31,32,33,34,35,36,37,38,39,40,41,42,43,44,45,46,47,48,49,50,51,52,53,54,55,56,57,58,59,60,61,62,63,64,65,66,67,68,69,70,71,72,73,74,75,76,77,78,79,80,81,82,83,84,85,86,87,88,89,90,91,92,93,94,95,96,97,98,99,100,101,102,103,104,105,106,107,108,109,110,111,112,113,114,115,116,117,118,119,120,121,122,123,124,125,126,127,128,129,130,131,132,133,134,135,136,137,138,139,140,141,142,143,144,145,146,147,148,149,150,151,152,153,154,155,156,157,158,159,160,161,162,163,164,165,166,167,168,169,170,171,172,173,174,175,176,177,178,179,180,181,182,183,184,185,186,187,188,189,190,191,192,193,194,195,196,197,198,199,200,201,202,203,204,205,206,207,208,209,210,211,212,213,214,215,216,217,218,219,220,221,222,223,224,225,226,227,228,229,230,231,232,233,234,235,236,237,238,239,240,241,242,243,244,245,246,247,248,249,250,251,252,253,254
0.6053853017215349,0.5916643481392252,0.6075893403148047,0.6321471494470701,0.6389823244746684,0.6349159407742602,0.5934497094977673,0.5274752785694414,0.45507679112402877,0.38680744146923995,0.31436510731226885,0.2573595527723831,0.19169414724393308,0.11505140358784849,0.03932934255876508,0.0,0.04054681123056425,0.10773393744740134,0.18442121368647113,0.259578743703581,0.32811386492901895,0.40481151768707924,0.48205651849624287,0.5519673773719718,0.6252333110208039,0.7026173268179439,0.7729773588599187,0.7984147592678372,0.7506295853896181,0.7151338329495336,0.6979644299802064,0.6854868353284753,0.6763006493053689,0.6713154258499494,0.6552331160176332,0.6357970020008401,0.6131502885729003,0.590945067588545,0.5726611617280928,0.5580484519843472,0.5590931523440539,0.5725119675038313,0.5876161485153397,0.5881659381425468,0.5789650718135839,0.5778528407068517,0.5785182138317955,0.5873057468670404,0.590081462982408,0.5901343928897735,0.5945116177682332,0.6020401792572496,0.6023376107974059,0.6023376107974059,0.6023364022552218,0.6013065045931354,0.5897674067200196,0.5759617720463077,0.567741544517363,0.5857651082769206,0.6161342493187076,0.6369182206969817,0.6385888400648887,0.6150233368967482,0.548419165030233,0.47935854993757054,0.41128378388406905,0.3355035792611971,0.26335672203021754,0.19241717532568936,0.11607628865684205,0.04953188077065773,0.012215537359788087,0.05134264562727742,0.1195241386333945,0.1966423162018327,0.2703745781002942,0.33990406611501234,0.4170543098617534,0.4945957220746584,0.5721372328978476,0.6496787437210374,0.7270985410640716,0.7935329514614673,0.7908546899008284,0.7475955480357888,0.7132021861568916,0.6928380961119682,0.6812955852628204,0.6642363934258677,0.6524044795450523,0.6332364763987637,0.6135551175641707,0.588230104163979,0.5645989790799741,0.5437092030178106,0.5317334314607527,0.5431592496358013,0.5600543193221541,0.5787353054935598,0.5896019998171642,0.5901002358628773,0.5921350725855135,0.601313493252015,0.6027563528127344,0.6113550613187084,0.623577958510642,0.6268058156516423,0.6268244036889401,0.6267999789835765,0.6230549247696433,0.615000677306913,0.6145810812008867,0.614283477092731,0.6063054021551726,0.589409106300347,0.5881747841940688,0.6134387316402137,0.6409065845739073,0.6510128319690458,0.643767305151087,0.6043506793926694,0.5390359378799523,0.47131872374276584,0.39855838975025004,0.33142443868036486,0.2715270292821679,0.20262847564488284,0.13434525392341068,0.05979167906493954,0.014620634923861786,0.05482127642358181,0.12363246522709148,0.20075428133397,0.278294966012925,0.35499266807612817,0.42352087460040044,0.4963304048224133,0.5640198268082264,0.6300481998106702,0.6739782276084729,0.6873397736031817,0.6825642412303017,0.6773388430939522,0.6543031847302632,0.628420617280316,0.6330386346689925,0.6458612655096458,0.6555404656669674,0.656208068128949,0.6562097637009638,0.6571925681237505,0.6619971047863662,0.6580313060427119,0.6615420003995709,0.655947224449505,0.647498745918198,0.6366105827846278,0.6317585212103785,0.6284225706769386,0.6248280614668076,0.6314645063870294,0.6281191413510703,0.6100760842847825,0.5893004936001662,0.5744514906153457,0.5759036209253217,0.5959513420173232,0.6231341549662632,0.6468184824953558,0.6687368208335474,0.6863418351931774,0.696529929967574,0.7136426023088318,0.7239411001169871,0.7466120841628561,0.784460772787754,0.837847416813013,0.9014766631962461,0.9624104615797586,0.9853435633254932,0.9333280273582143,0.8595005890985861,0.791195120750273,0.7149874090327013,0.6403103138597981,0.5714723025079422,0.4945961198096922,0.41809848239241765,0.37202939670203894,0.42092058710399693,0.4874239927196453,0.5409142949478196,0.6033094077056811,0.6554821671317561,0.6743163610022989,0.6799111976814651,0.6701458377582701,0.6461562318753153,0.6117841521511416,0.6054500897168613,0.6182061280712046,0.6313960550396556,0.641856449851629,0.6389641410985796,0.6319252596608265,0.631721762267246,0.631721762267246,0.631721762267246,0.6317002255331419,0.6283642256945594,0.6196678585221398,0.611663871803442,0.6113095694352784,0.6100644615097082,0.6183652958033807,0.6192409383362198,0.6119833043106957,0.601131553311828,0.5980599775134832,0.6142873917553673,0.6336980195005104,0.6560787307657541,0.6785158731423548,0.6972729995900546,0.7077943049019071,0.717782332964795,0.7279285335524044,0.7395263286817242,0.7670975395841735,0.8155715930315623,0.8784120550524963,0.9473001463872937,1.0,0.9793788749905397,0.9109048204125689,0.8395041535178933,0.7679135894568083,0.6904932853885946,0.6146378249499778,0.5463271918349375,0.4701079578511653,0.3939056523697675,0.3603882690179687,0.4207328110763098,0.4897909450450242,0.5638304013640305,0.6321335019946921,0.6677683698194876,0.6738566110478503,0.6759727780124911,0.666229853163423,0.6475194879433621,0.6267456578025796,0.6408020876849956
0,1,2,3,4,5,6,7,8,9,10,11,12,13,14,15,16,17,18,19,20,21,22,23,24,25,26,27,28,29,30,31,32,33,34,35,36,37,38,39,40,41,42,43,44,45,46,47,48,49,50,51,52,53,54,55,56,57,58,59,60,61,62,63,64,65,66,67,68,69,70,71,72,73,74,75,76,77,78,79,80,81,82,83,84,85,86,87,88,89,90,91,92,93,94,95,96,97,98,99,100,101,102,103,104,105,106,107,108,109,110,111,112,113,114,115,116,117,118,119,120,121,122,123,124,125,126,127,128,129,130,131,132,133,134,135,136,137,138,139,140,141,142,143,144,145,146,147,148,149,150,151,152,153,154,155,156,157,158,159,160,161,162,163,164,165,166,167,168,169,170,171,172,173,174,175,176,177,178,179,180,181,182,183,184,185,186,187,188,189,190,191,192,193,194,195,196,197,198,199,200,201,202,203,204,205,206,207,208,209,210,211,212,213,214,215,216,217,218,219,220,221,222,223,224,225,226,227,228,229,230,231,232,233,234,235,236,237,238,239,240,241,242,243,244,245,246,247,248,249,250,251,252,253,254
