0,1,2,3,4,5,6,7,8,9,10,11,12,13,14,15,16,17,18,19,20,21,22,23,24,25,26,27,28,29,30,31,32,33,34,35,36,37,38,39,40,41,42,43,44,45,46,47,48,49,50,51,52,53,54,55,56,57,58,59,60,61,62,63,64,65,66,67,68,69,70,71,72,73,74,75,76,77,78,79,80,81,82,83,84,85,86,87,88,89,90,91,92,93,94,95,96,97,98,99,100,101,102,103,104,105,106,107,108,109,110,111,112,113,114,115,116,117,118,119,120,121,122,123,124,125,126,127,128,129,130,131,132,133,134,135,136,137,138,139,140,141,142,143,144,145,146,147,148,149,150,151,152,153,154,155,156,157,158,159,160,161,162,163,164,165,166,167,168,169,170,171,172,173,174,175,176,177,178,179,180,181,182,183,184,185,186,187,188,189,190,191,192,193,194,195,196,197,198,199,200,201,202,203,204,205,206,207,208,209,210,211,212,213,214,215,216,217,218,219,220,221,222,223,224,225,226,227,228,229,230,231,232,233,234,235,236,237,238,239,240,241,242,243,244,245,246,247,248,249,250,251,252,253,254
0.46245020364646017,0.44030584779482096,0.4042619074341438,0.4022115863257789,0.5124786615447618,0.6457404437625911,0.7730266713648466,0.8932146053221284,0.9437210343630777,0.857987524158137,0.7304594875454495,0.6223686191992255,0.5343990681037467,0.5024472294589328,0.4979116224008475,0.49438298419864246,0.5149921749779094,0.5139358539716352,0.5295268892203175,0.577221388749376,0.6487954253145012,0.7330409704316843,0.8296717131028544,0.926450489702848,1.0,0.9771158892494061,0.8845569656647685,0.7814986642341823,0.6894942533135806,0.6155754289834832,0.5497277783072048,0.5067997737936665,0.4953452204310338,0.478610772292833,0.3884322883773539,0.33040819562515855,0.4292982407531971,0.5514878616089836,0.6844175208924326,0.8107027833881215,0.9066979215368316,0.875283771584324,0.7660960039063709,0.6499615056312034,0.5554304145610662,0.5083275142539847,0.49826577451484866,0.4745837179661745,0.4647390360944388,0.4839907835285655,0.498763328589646,0.5068126792561691,0.5599190573303354,0.6353749704263647,0.7145088685925964,0.7950076709471752,0.8849469579144027,0.9147316103270469,0.8523176042309175,0.7572979609449209,0.6632122260654718,0.5774997962779373,0.5076465623168036,0.46092968933994527,0.44106539804591005,0.41860310307745907,0.3698434145325522,0.38798836970787187,0.50467256757964,0.6378212273698298,0.7688988007997475,0.8903959335607561,0.9912182137184851,0.9567694737324914,0.8416780909437724,0.7173345259847714,0.5989243608913983,0.505318838741672,0.4720575493992003,0.4869182823431566,0.4749354798494476,0.4620209177494594,0.4566918676288645,0.44275950233728567,0.44831915027919766,0.4950958216581447,0.5613510928464907,0.6460513984101679,0.7436830320201722,0.8474219586242127,0.9171168604573023,0.9016460072783579,0.807244394013579,0.7126986368512358,0.6183163998551673,0.535683640637997,0.46697753979281087,0.4282591982851005,0.4164884116974248,0.3796489509000214,0.3126394816525764,0.3774481697987526,0.5019775418927517,0.628053103421812,0.7605286129592881,0.8821871041835267,0.9917990677196848,0.986046029923584,0.8762546426853897,0.7469370788899465,0.6322415078982533,0.5350261012839934,0.48610537735728476,0.4834457675963786,0.46794405832819885,0.46333662896737726,0.4638242818282068,0.4687601921230944,0.488294837500896,0.5386521472554855,0.6063884438940672,0.6960849775587232,0.798888813964171,0.8853166785016389,0.9171471517345617,0.8506162932299222,0.7615287259368859,0.7345784230847046,0.8141474513112854,0.8232883506110924,0.7374308999634489,0.6414686081096193,0.5532514516356843,0.4887417702622985,0.4426910442762062,0.4179482815326745,0.41689894987779885,0.4091741412306482,0.40283972071145113,0.4243271693434818,0.4319853063188339,0.4604259433458546,0.5440222331642341,0.6539155581809135,0.7164195812772411,0.6180332504911417,0.4876702651561846,0.36546403059293864,0.23257822853825738,0.10410180076136966,0.008437576394339175,0.04089614866235358,0.15445249813609996,0.2714001871192475,0.35797334693233296,0.3789431414932922,0.3965346275556958,0.4470983872848251,0.5132067686911932,0.5964019379203158,0.6959408347847784,0.7951388265446302,0.8509728610038922,0.7845146611081217,0.6852878677480034,0.5852411483128588,0.5060362605343678,0.44626853749263473,0.40260766207530096,0.3960145178935037,0.4066039254567193,0.40197702976899974,0.4105670383202291,0.4219300481311361,0.4158126951057919,0.43652167626304106,0.5131056440838964,0.6158570514786281,0.6439927150378679,0.5284751756005548,0.39617667361735664,0.2743153816705246,0.14393770188441568,0.02978003368021742,0.013348103622374374,0.12573610720522055,0.2491281429710015,0.34617879752439107,0.38177177140197793,0.4020123467399537,0.44328446155810575,0.5016982206248337,0.5790528373743906,0.6735052383358582,0.7653091294376324,0.8339051612486879,0.7873975894829943,0.6848860682684497,0.5983023380921804,0.5261829012975192,0.46700576742131217,0.4452717583882482,0.43506337453832344,0.41481073613822694,0.40780461331579865,0.4253083155054349,0.4468065644385133,0.47341451992227235,0.5377255154571356,0.6376792659866384,0.6582616976808326,0.5411525793430556,0.41651393365085587,0.28913326285592955,0.1583760340067748,0.04161663675128979,0.005837748972615575,0.11354968459559345,0.2396483190004881,0.35221427931301896,0.43276487790857754,0.45456077225141467,0.4650604661263369,0.5137421235679058,0.5738153261464345,0.6507432973963918,0.7476986482317418,0.8456404485101046,0.926256621484185,0.8935042191663274,0.791298813432348,0.6932637291849368,0.6108559638149766,0.5419093886723374,0.4907758226381822,0.4694854859504347,0.46497080567494553,0.4476745278189642,0.42414923356925494,0.4435699051926316,0.44921721668749637,0.4633472450108611,0.5358352882421737,0.622968177906372,0.5665748229505807,0.4347215326942129,0.3090588997526078,0.18294657060438801,0.059678660859238786,0.0,0.0806727841618371,0.20352553594087208,0.32572819404544084,0.3828666956571878,0.40081933369803435
0,1,2,3,4,5,6,7,8,9,10,11,12,13,14,15,16,17,18,19,20,21,22,23,24,25,26,27,28,29,30,31,32,33,34,35,36,37,38,39,40,41,42,43,44,45,46,47,48,49,50,51,52,53,54,55,56,57,58,59,60,61,62,63,64,65,66,67,68,69,70,71,72,73,74,75,76,77,78,79,80,81,82,83,84,85,86,87,88,89,90,91,92,93,94,95,96,97,98,99,100,101,102,103,104,105,106,107,108,109,110,111,112,113,114,115,116,117,118,119,120,121,122,123,124,125,126,127,128,129,130,131,132,133,134,135,136,137,138,139,140,141,142,143,144,145,146,147,148,149,150,151,152,153,154,155,156,157,158,159,160,161,162,163,164,165,166,167,168,169,170,171,172,173,174,175,176,177,178,179,180,181,182,183,184,185,186,187,188,189,190,191,192,193,194,195,196,197,198,199,200,201,202,203,204,205,206,207,208,209,210,211,212,213,214,215,216,217,218,219,220,221,222,223,224,225,226,227,228,229,230,231,232,233,234,235,236,237,238,239,240,241,242,243,244,245,246,247,248,249,250,251,252,253,254
0.8240523961714192,0.8058466346279696,0.8247078861779054,0.8448950865512348,0.8273458998652883,0.8018123947665998,0.8098624848602594,0.8492822100569128,0.8809568438684456,0.8784095875462334,0.8360316579275286,0.802726661012036,0.8115915733136045,0.8086744372091346,0.7989744484241434,0.7969916350143151,0.7558666251785837,0.709078265717376,0.6700177863979233,0.6995039572623618,0.7304576249689401,0.702834563555947,0.6897112972007937,0.7197481611515171,0.7527880535918037,0.7421355637083602,0.7347309816602232,0.734021979959099,0.7714632837564137,0.8214949612412585,0.8850465938762708,0.8897084528859978,0.8004960556222978,0.686486971026623,0.7609516605549764,0.8786091678594472,0.8839750468329548,0.8371672170887932,0.84465304755199,0.8140448529209996,0.7889029464556678,0.7750332289299395,0.8042193960111925,0.8535475715395107,0.8796671690025928,0.852810777294029,0.7941718993089983,0.7167745811610331,0.7298433271253906,0.7742124966448882,0.7977241640445634,0.8100493721332525,0.8158980256442803,0.8520051246015292,0.838066026039515,0.8272201110779278,0.8448649825900603,0.8671097097574467,0.9056019164360398,0.9584409592704191,0.902090628782493,0.8581742173026932,0.9497635517589123,1.0,0.9432432105313042,0.9298022400178603,0.8813410827331927,0.8217343491991276,0.8381712287306131,0.8735798925569247,0.8467998944777237,0.8384823111807211,0.8281472857383783,0.8326819781537438,0.8239192860215656,0.7778409529796146,0.7490837366998919,0.7744726744922668,0.8382891909960355,0.7920152097814883,0.7408339082326618,0.699764764014394,0.6628536142818806,0.6643669057068307,0.7081763513109447,0.7448488764709307,0.7553340912605071,0.7508283631347634,0.7335878969315921,0.7395931717365674,0.8126125670998885,0.9026066005715698,0.950477430570011,0.9197248445481909,0.8454507490741605,0.7570785994352827,0.6823528377950403,0.7076880464193209,0.7606754347450311,0.7900432885403852,0.7729861493045513,0.7158809192992148,0.6524077905830312,0.6731626292301041,0.7239117431492259,0.714949435552267,0.6795169686902813,0.6452910019860063,0.639526928872475,0.5942988732799233,0.5340488307697804,0.5422122171291317,0.5929088061791541,0.6640580051942528,0.6767256075244088,0.623207132500335,0.5301919462846376,0.4006344813268692,0.2443958410079441,0.0907789096734799,0.0,0.0016952011095048292,0.07096423279242936,0.22053351069782234,0.3757023447317289,0.45132041000127465,0.39567692287200096,0.26011406889450317,0.10553772851600751,0.012484832681126434,0.00778036632849588,0.08129798917412145,0.23260722160045422,0.365410355395821,0.3516185981559028,0.20883686225754428,0.06240147595373724,0.005181857633430376,0.011681294848831403,0.1016624895131315,0.2560523564168715,0.40937859244394303,0.5077658795005826,0.516655393439386,0.5436202463810034,0.5810736923681254,0.599736640450538,0.5486202233794462,0.5113796620695661,0.5680827862157898,0.641752828525969,0.6717707645101845,0.6455286109468741,0.5782138570760127,0.5434079948459978,0.5964256524564187,0.6142353997173862,0.6268895589858845,0.7342234969604116,0.7583535831342498,0.6642975746315836,0.6114601994173237,0.5970943982320307,0.6175655608058346,0.6310304771961048,0.6070627246698503,0.5632974662122336,0.5216751612701875,0.5340590162498993,0.5642808676493534,0.6089885770878665,0.6557760705174003,0.6836373138103875,0.6386835728667624,0.6268441076690907,0.6676408630517026,0.6896623507751238,0.6864237169318939,0.7197174399911024,0.7215530767789646,0.7481868712671371,0.7229025645453184,0.6874601571301291,0.6978975481294256,0.7659825220421714,0.7929311323355304,0.8144022481769868,0.7041786940214214,0.5844661906932727,0.5697452322506464,0.6365708957841099,0.7552690714713259,0.8365325712877647,0.7629633599386025,0.7487506874727545,0.7200704365383119,0.7036837925975563,0.7062932165786098,0.720201733171149,0.6833432756987792,0.6754546185527062,0.6694292356000817,0.6314834175170816,0.594653218144547,0.5954287797563946,0.657939919794849,0.7450393522535386,0.7508467266327115,0.7114568654776816,0.6741702934023683,0.6315954495321883,0.6658385948905652,0.6854537992827581,0.7135334043299189,0.6979071227242546,0.7154675458689699,0.7042774601584494,0.5760209697011147,0.43839766385766765,0.38317792686197194,0.4714754421351506,0.5811212563225707,0.7115821868945567,0.753910363908127,0.701726030609537,0.653526845861033,0.6064002174829071,0.5983557992217232,0.6130320590331806,0.6138784219570734,0.6049963689202311,0.5746990318802379,0.5666158861298927,0.6003355758964348,0.6041366061128066,0.5707969667551227,0.5708099631092409,0.6068117289293697,0.6708065233732068,0.6887169018822457,0.681074126655,0.698536411951383,0.6789137152686999,0.6811481526825416,0.7282773093550787,0.7579740503992207,0.741580121944108,0.7022627884080936,0.6820791195555813,0.688188730204943,0.703538503309586,0.724087611319634,0.687356132148043,0.6779291875168552,0.6991091845736728
0,1,2,3,4,5,6,7,8,9,10,11,12,13,14,15,16,17,18,19,20,21,22,23,24,25,26,27,28,29,30,31,32,33,34,35,36,37,38,39,40,41,42,43,44,45,46,47,48,49,50,51,52,53,54,55,56,57,58,59,60,61,62,63,64,65,66,67,68,69,70,71,72,73,74,75,76,77,78,79,80,81,82,83,84,85,86,87,88,89,90,91,92,93,94,95,96,97,98,99,100,101,102,103,104,105,106,107,108,109,110,111,112,113,114,115,116,117,118,119,120,121,122,123,124,125,126,127,128,129,130,131,132,133,134,135,136,137,138,139,140,141,142,143,144,145,146,147,148,149,150,151,152,153,154,155,156,157,158,159,160,161,162,163,164,165,166,167,168,169,170,171,172,173,174,175,176,177,178,179,180,181,182,183,184,185,186,187,188,189,190,191,192,193,194,195,196,197,198,199,200,201,202,203,204,205,206,207,208,209,210,211,212,213,214,215,216,217,218,219,220,221,222,223,224,225,226,227,228,229,230,231,232,233,234,235,236,237,238,239,240,241,242,243,244,245,246,247,248,249,250,251,252,253,254
0.266064026878563,0.25290097519997223,0.2558833610576783,0.26449855302091807,0.2997774200117038,0.35565787752330946,0.4312456461594465,0.499471747133994,0.5598473341445955,0.5470433965364054,0.4896733865568903,0.4191955490007815,0.3502879266281824,0.32743868011849475,0.30629880883386296,0.287490404060216,0.2406701961338058,0.19037781569279755,0.22710893900892026,0.32355823683467033,0.4217561307345994,0.5203194012513559,0.623879604859654,0.7238131538667654,0.8241517063968642,0.9210556622898975,1.0,0.9736616366608986,0.8806172553764045,0.7832500249867826,0.6810011764311339,0.5819651895771218,0.48138445062045543,0.3886534162884092,0.3704492958224006,0.3862746101486674,0.3939421946523134,0.3803748334074628,0.37978852394172735,0.40564623781006315,0.4132279828446883,0.41826758792789764,0.41201942448939377,0.39377579226867443,0.3977200358331241,0.39563424761521837,0.41719634980758835,0.4073526989934413,0.43970263477960714,0.4908160608026675,0.5527254315881747,0.5984753037129957,0.5718139139012517,0.5052278668191019,0.44609120935886404,0.38832110906037576,0.3546606643525796,0.33126150996728265,0.3003545267728689,0.24746103316564705,0.2317119968065553,0.3089615208023484,0.4027584071381156,0.501347256412199,0.6015175750261159,0.698692703910758,0.794756868872506,0.8929450920036421,0.9760872895454087,0.9439647770145285,0.8506372493474399,0.753336157119747,0.652451775821032,0.5532788914346822,0.44880815691855336,0.3629552704614416,0.34782729009103663,0.361300221921081,0.3464208454203179,0.3353380170882634,0.36128503614194685,0.3563852347344074,0.359973309952633,0.3600653252309747,0.3415302840851111,0.34026816411928085,0.3469299674435127,0.3490769338918347,0.3491557586148808,0.36641681506573276,0.3769589146713539,0.4121497030867225,0.4748327459595818,0.5441712517370876,0.5907188378156714,0.577264780024703,0.5131818940478179,0.4465942958641782,0.3892710027950961,0.3474187037136396,0.34980044707654834,0.31155894519110605,0.27867682510007175,0.21805520258323874,0.16892393870859124,0.22239638036357068,0.319106606949362,0.4177402104341814,0.51972677949116,0.6208085660135931,0.7203546138025283,0.8262523887500879,0.9269737800838285,0.9950286353440752,0.9498580351629999,0.8544479257392541,0.7572577738966872,0.6577742185925941,0.552833640618752,0.45281756936858475,0.3583058034632445,0.3436432009301802,0.35410766498922497,0.3386154810887452,0.34848219039241135,0.33258224779133005,0.3365324944028347,0.30363646980197156,0.2724914867235486,0.2464341336444993,0.17979800055381423,0.07424118636215549,0.0,0.006923075604334805,0.08826330273767002,0.19273326780771205,0.26088406597161384,0.28764394681077254,0.2758546120538061,0.2773735204415555,0.27719868784772084,0.2413023876028464,0.2891989717577319,0.38323125299431826,0.482229606761722,0.5876466460602825,0.6882114901466609,0.770296579367594,0.7241053620135469,0.6250192763429068,0.5217363717102965,0.4224507545125591,0.3155281168808113,0.21458676038069013,0.12827333081861925,0.09008912206967468,0.12878329910598119,0.19963194922271033,0.23841988794730273,0.27060374664896925,0.26583781022054387,0.31159662701963997,0.36427673225550494,0.42688835552530024,0.49393143423996655,0.5329834578914272,0.48642008355977673,0.4131642315331798,0.3571548578746637,0.31930327419097315,0.3051467891339148,0.2951778190619301,0.28534511609573476,0.2925710078767767,0.2758894683814286,0.28947636355505546,0.282948110969405,0.28545568928111686,0.2853523060257257,0.26964984576129947,0.27781939993375593,0.2837704982553184,0.2995390227948551,0.29266613149083254,0.26544966052282737,0.3085816126902321,0.40397777833802184,0.5053757509112771,0.6051713497207842,0.7026828502538707,0.7003685285642924,0.6010188740886329,0.4952718129944773,0.3989041425639561,0.3047096127704525,0.21312795803125129,0.1561985765151852,0.18358990242420337,0.23736001630641734,0.27490702315135174,0.301766953625068,0.32723614850457805,0.3778335076950743,0.43466709192974795,0.50529586812796,0.5322724648826811,0.4819102743211108,0.42287524277428234,0.3723223978731469,0.3363393555408365,0.35177710253127037,0.34164788972574733,0.339736500700599,0.3358065486987649,0.3456916800163641,0.36914192433156323,0.36632943301119925,0.35655369757235933,0.3569404572886432,0.33042484744017964,0.32611387328730457,0.33392052783845294,0.3281920673545331,0.3093060231011031,0.27893211452758804,0.3357519570845846,0.4330262859645342,0.5344002749689887,0.634818535829262,0.7303713137543184,0.7193507796268288,0.6201493771036133,0.520251161857892,0.4210101812257294,0.3196947838891928,0.2224965791914859,0.13752020233905515,0.11973739204152123,0.16794526359511952,0.22329353974376476,0.2352511966789561,0.25513464388352425,0.2563102825938519,0.3014598192291835,0.3806836197761121,0.4500243268987125,0.4797920912082816,0.42661556936517187,0.345166267852417,0.28929592553109584,0.2378059019858889,0.1968169097044723,0.18021157061655213,0.20025051244311642,0.20907940243254552
0,1,2,3,4,5,6,7,8,9,10,11,12,13,14,15,16,17,18,19,20,21,22,23,24,25,26,27,28,29,30,31,32,33,34,35,36,37,38,39,40,41,42,43,44,45,46,47,48,49,50,51,52,53,54,55,56,57,58,59,60,61,62,63,64,65,66,67,68,69,70,71,72,73,74,75,76,77,78,79,80,81,82,83,84,85,86,87,88,89,90,91,92,93,94,95,96,97,98,99,100,101,102,103,104,105,106,107,108,109,110,111,112,113,114,115,116,117,118,119,120,121,122,123,124,125,126,127,128,129,130,131,132,133,134,135,136,137,138,139,140,141,142,143,144,145,146,147,148,149,150,151,152,153,154,155,156,157,158,159,160,161,162,163,164,165,166,167,168,169,170,171,172,173,174,175,176,177,178,179,180,181,182,183,184,185,186,187,188,189,190,191,192,193,194,195,196,197,198,199,200,201,202,203,204,205,206,207,208,209,210,211,212,213,214,215,216,217,218,219,220,221,222,223,224,225,226,227,228,229,230,231,232,233,234,235,236,237,238,239,240,241,242,243,244,245,246,247,248,249,250,251,252,253,254
0.266064026878563,0.25290097519997223,0.2558833610576783,0.26449855302091807,0.2997774200117038,0.35565787752330946,0.4312456461594465,0.499471747133994,0.5598473341445955,0.5470433965364054,0.4896733865568903,0.4191955490007815,0.3502879266281824,0.32743868011849475,0.30629880883386296,0.287490404060216,0.2406701961338058,0.19037781569279755,0.22710893900892026,0.32355823683467033,0.4217561307345994,0.5203194012513559,0.623879604859654,0.7238131538667654,0.8241517063968642,0.9210556622898975,1.0,0.9736616366608986,0.8806172553764045,0.7832500249867826,0.6810011764311339,0.5819651895771218,0.48138445062045543,0.3886534162884092,0.3704492958224006,0.3862746101486674,0.3939421946523134,0.3803748334074628,0.37978852394172735,0.40564623781006315,0.4132279828446883,0.41826758792789764,0.41201942448939377,0.39377579226867443,0.3977200358331241,0.39563424761521837,0.41719634980758835,0.4073526989934413,0.43970263477960714,0.4908160608026675,0.5527254315881747,0.5984753037129957,0.5718139139012517,0.5052278668191019,0.44609120935886404,0.38832110906037576,0.3546606643525796,0.33126150996728265,0.3003545267728689,0.24746103316564705,0.2317119968065553,0.3089615208023484,0.4027584071381156,0.501347256412199,0.6015175750261159,0.698692703910758,0.794756868872506,0.8929450920036421,0.9760872895454087,0.9439647770145285,0.8506372493474399,0.753336157119747,0.652451775821032,0.5532788914346822,0.44880815691855336,0.3629552704614416,0.34782729009103663,0.361300221921081,0.3464208454203179,0.3353380170882634,0.36128503614194685,0.3563852347344074,0.359973309952633,0.3600653252309747,0.3415302840851111,0.34026816411928085,0.3469299674435127,0.3490769338918347,0.3491557586148808,0.36641681506573276,0.3769589146713539,0.4121497030867225,0.4748327459595818,0.5441712517370876,0.5907188378156714,0.577264780024703,0.5131818940478179,0.4465942958641782,0.3892710027950961,0.3474187037136396,0.34980044707654834,0.31155894519110605,0.27867682510007175,0.21805520258323874,0.16892393870859124,0.22239638036357068,0.319106606949362,0.4177402104341814,0.51972677949116,0.6208085660135931,0.7203546138025283,0.8262523887500879,0.9269737800838285,0.9950286353440752,0.9498580351629999,0.8544479257392541,0.7572577738966872,0.6577742185925941,0.552833640618752,0.45281756936858475,0.3583058034632445,0.3436432009301802,0.35410766498922497,0.3386154810887452,0.34848219039241135,0.33258224779133005,0.3365324944028347,0.30363646980197156,0.2724914867235486,0.2464341336444993,0.17979800055381423,0.07424118636215549,0.0,0.006923075604334805,0.08826330273767002,0.19273326780771205,0.26088406597161384,0.28764394681077254,0.2758546120538061,0.2773735204415555,0.27719868784772084,0.2413023876028464,0.2891989717577319,0.38323125299431826,0.482229606761722,0.5876466460602825,0.6882114901466609,0.770296579367594,0.7241053620135469,0.6250192763429068,0.5217363717102965,0.4224507545125591,0.3155281168808113,0.21458676038069013,0.12827333081861925,0.09008912206967468,0.12878329910598119,0.19963194922271033,0.23841988794730273,0.27060374664896925,0.26583781022054387,0.31159662701963997,0.36427673225550494,0.42688835552530024,0.49393143423996655,0.5329834578914272,0.48642008355977673,0.4131642315331798,0.3571548578746637,0.31930327419097315,0.3051467891339148,0.2951778190619301,0.28534511609573476,0.2925710078767767,0.2758894683814286,0.28947636355505546,0.282948110969405,0.28545568928111686,0.2853523060257257,0.26964984576129947,0.27781939993375593,0.2837704982553184,0.2995390227948551,0.29266613149083254,0.26544966052282737,0.3085816126902321,0.40397777833802184,0.5053757509112771,0.6051713497207842,0.7026828502538707,0.7003685285642924,0.6010188740886329,0.4952718129944773,0.3989041425639561,0.3047096127704525,0.21312795803125129,0.1561985765151852,0.18358990242420337,0.23736001630641734,0.27490702315135174,0.301766953625068,0.32723614850457805,0.3778335076950743,0.43466709192974795,0.50529586812796,0.5322724648826811,0.4819102743211108,0.42287524277428234,0.3723223978731469,0.3363393555408365,0.35177710253127037,0.34164788972574733,0.339736500700599,0.3358065486987649,0.3456916800163641,0.36914192433156323,0.36632943301119925,0.35655369757235933,0.3569404572886432,0.33042484744017964,0.32611387328730457,0.33392052783845294,0.3281920673545331,0.3093060231011031,0.27893211452758804,0.3357519570845846,0.4330262859645342,0.5344002749689887,0.634818535829262,0.7303713137543184,0.7193507796268288,0.6201493771036133,0.520251161857892,0.4210101812257294,0.3196947838891928,0.2224965791914859,0.13752020233905515,0.11973739204152123,0.16794526359511952,0.22329353974376476,0.2352511966789561,0.25513464388352425,0.2563102825938519,0.3014598192291835,0.3806836197761121,0.4500243268987125,0.4797920912082816,0.42661556936517187,0.345166267852417,0.28929592553109584,0.2378059019858889,0.1968169097044723,0.18021157061655213,0.20025051244311642,0.20907940243254552
0,1,2,3,4,5,6,7,8,9,10,11,12,13,14,15,16,17,18,19,20,21,22,23,24,25,26,27,28,29,30,31,32,33,34,35,36,37,38,39,40,41,42,43,44,45,46,47,48,49,50,51,52,53,54,55,56,57,58,59,60,61,62,63,64,65,66,67,68,69,70,71,72,73,74,75,76,77,78,79,80,81,82,83,84,85,86,87,88,89,90,91,92,93,94,95,96,97,98,99,100,101,102,103,104,105,106,107,108,109,110,111,112,113,114,115,116,117,118,119,120,121,122,123,124,125,126,127,128,129,130,131,132,133,134,135,136,137,138,139,140,141,142,143,144,145,146,147,148,149,150,151,152,153,154,155,156,157,158,159,160,161,162,163,164,165,166,167,168,169,170,171,172,173,174,175,176,177,178,179,180,181,182,183,184,185,186,187,188,189,190,191,192,193,194,195,196,197,198,199,200,201,202,203,204,205,206,207,208,209,210,211,212,213,214,215,216,217,218,219,220,221,222,223,224,225,226,227,228,229,230,231,232,233,234,235,236,237,238,239,240,241,242,243,244,245,246,247,248,249,250,251,252,253,254
0.4545843823294071,0.428297512618953,0.3997358267069304,0.39290295678670506,0.45024385198816685,0.5227598436278516,0.6031594629116077,0.6877840158580784,0.7741219556226071,0.8593577684076659,0.9209782716155341,0.8810235078416573,0.7920105726772257,0.6998883841474572,0.6148037031927387,0.5220780380044963,0.4280795133539874,0.33446925138610406,0.24813770083366116,0.15898440830343974,0.11112223469817017,0.17605942760736237,0.2576247657580135,0.3172859415542031,0.3281041146608248,0.3181744919023086,0.2976207714667447,0.2837071177490449,0.3076269183461289,0.3158325041996861,0.31316220071370293,0.31255708787931735,0.3196585268126215,0.31171194683418535,0.29752750001411976,0.29526007842461977,0.2974433908972438,0.291294826021246,0.28745395985011624,0.31572816599891573,0.31455664508511205,0.31355093751381036,0.35930162541618427,0.41262458418077963,0.46015462257768713,0.4751229060701483,0.4601622522219906,0.4317853342176672,0.4259148887933699,0.4824644076192366,0.5544559163640252,0.6341488060369918,0.7198176621158792,0.8061794512598881,0.8943156798089953,0.9753973582786208,1.0000000000000002,0.9300085706766368,0.8424740612483379,0.748647504428982,0.6549200649256604,0.5679129890668453,0.4786310598556571,0.3846942132460607,0.2907634030040842,0.20326131301585737,0.17769095546180158,0.24877842806836203,0.3277734430120878,0.3752268540326906,0.375258440621429,0.3435473244333209,0.29334228895975745,0.2556017869537548,0.2875039252834082,0.319454461632769,0.3147724437327286,0.31239673509519705,0.31331884882276784,0.3242469459500985,0.3353790599715156,0.33311690380834347,0.33332301559170063,0.3308642168767102,0.31198218182059145,0.30493669872531104,0.34552698400547466,0.395387977310796,0.44162965457617864,0.44726256938058495,0.4222648825722686,0.39849229966799427,0.41163595954797727,0.4776132819665928,0.551817601911295,0.6185426040836337,0.7008451895720162,0.7903723862133953,0.8746282731674653,0.9339425970926738,0.8874293927158361,0.8014068381380939,0.7078681764373342,0.6203946123040194,0.5316255504687082,0.4377207441302733,0.3441772634799978,0.25804305434363006,0.16824090099620514,0.11128664106127939,0.1679088073417776,0.24904190152926664,0.30783975449860623,0.3191853918323264,0.2966046427055331,0.2611837989580674,0.2505392451926809,0.28387703906957773,0.2979233555629417,0.292676199482623,0.29330949522445504,0.2818009595391966,0.2854780458363453,0.29444189803233267,0.3034936158049817,0.3277807814826954,0.33530074842903557,0.3151695259474143,0.30210068348026464,0.34483801194259134,0.3994269385296352,0.4475506187136007,0.4421308726332327,0.39358877427349115,0.33558763688016247,0.28300974402558965,0.23301711250561596,0.1530483603712387,0.06319547370514922,0.017029971871386218,0.021294387721031427,0.08452328793204833,0.17607762195440801,0.23893071765846585,0.26700836337448997,0.29177268005053025,0.28343918802685963,0.2691928923447735,0.2554063250842806,0.24759406654007377,0.24971818046952476,0.25843483380537746,0.2592904686807216,0.2526773500528581,0.21983933807610234,0.19481093894270418,0.22867022536109727,0.26823749198933355,0.27432188376986044,0.21688426270243566,0.1372242638938992,0.0693062419549908,0.0030185312036503653,0.004471435169030036,0.07681474909226282,0.17017885931247,0.2641798901100383,0.35818106215613565,0.4521768097517669,0.5424346192625384,0.562947232831392,0.4936705044454468,0.4203455925877748,0.3642390549456762,0.35354219420747346,0.37501151033789903,0.40218739015237115,0.39845832146961,0.34987977880127485,0.30109419200934995,0.264785974704967,0.274350619664953,0.2907646956884906,0.2935154510369238,0.2937251592793195,0.2843988659221106,0.28535635796209036,0.27702731740469444,0.2715356973242511,0.2739992910943696,0.27779690154452696,0.24505299853505846,0.20353857564947053,0.2155105310369092,0.2682665309797594,0.3187616636536006,0.33658531587442586,0.2864635953408148,0.20401706546473997,0.12103248795465404,0.04809303619695093,0.04090959191970911,0.10642803151013869,0.18986757342296579,0.2810685501929375,0.3750530673951775,0.46905422767056604,0.5624677780792966,0.6160166833034963,0.5600989889322443,0.48649647353174097,0.4184598656265306,0.3802686344195918,0.3878778889389223,0.40951372967569744,0.4210101228258194,0.3980151590496883,0.3434738065250593,0.29193935056164566,0.26558261972029107,0.27897215482959825,0.27254714508722855,0.2442461466431065,0.25362586056565184,0.25931158919319075,0.2596340944222226,0.26745607833406493,0.279801339776923,0.2736861171638243,0.27563923498717746,0.2733351845588279,0.2573973083163079,0.22442271833529936,0.24395771955481593,0.2796553461760336,0.29067601523782427,0.2515572326800932,0.16529175393430862,0.0751577471369218,0.005252819617562743,0.0,0.05400148586067299,0.1411260624112125,0.22853326745787617,0.317302329293186,0.41120713563162137,0.5046995324545185,0.5767597239248123,0.5404246906982098,0.4613234065915559,0.3938840080651864,0.34753471174459993,0.3523787482770213,0.382780869961046,0.40628944395109134
0,1,2,3,4,5,6,7,8,9,10,11,12,13,14,15,16,17,18,19,20,21,22,23,24,25,26,27,28,29,30,31,32,33,34,35,36,37,38,39,40,41,42,43,44,45,46,47,48,49,50,51,52,53,54,55,56,57,58,59,60,61,62,63,64,65,66,67,68,69,70,71,72,73,74,75,76,77,78,79,80,81,82,83,84,85,86,87,88,89,90,91,92,93,94,95,96,97,98,99,100,101,102,103,104,105,106,107,108,109,110,111,112,113,114,115,116,117,118,119,120,121,122,123,124,125,126,127,128,129,130,131,132,133,134,135,136,137,138,139,140,141,142,143,144,145,146,147,148,149,150,151,152,153,154,155,156,157,158,159,160,161,162,163,164,165,166,167,168,169,170,171,172,173,174,175,176,177,178,179,180,181,182,183,184,185,186,187,188,189,190,191,192,193,194,195,196,197,198,199,200,201,202,203,204,205,206,207,208,209,210,211,212,213,214,215,216,217,218,219,220,221,222,223,224,225,226,227,228,229,230,231,232,233,234,235,236,237,238,239,240,241,242,243,244,245,246,247,248,249,250,251,252,253,254
0.43418574591263615,0.4929228910790553,0.55979471401959,0.6356415173074208,0.72541385655792,0.8170522856854074,0.9041769848785128,0.9413236009024948,0.8758491259255792,0.7774038295743748,0.7048682123422092,0.6762125951143452,0.6649405373052126,0.6621397056898901,0.6417018963383383,0.6102575287078988,0.5972196883578922,0.6069557942156736,0.6451731140390471,0.6588869536206399,0.6549234765710847,0.6611497193472606,0.6590941799057315,0.6557221437595617,0.6321982991903197,0.6024175613713811,0.5687020708643364,0.5131116491240453,0.44803853536165517,0.3801976909408251,0.3116553449329744,0.23922299846533224,0.17433582182818919,0.11883653725783416,0.09988441356236621,0.14589840505804252,0.2060690922273103,0.27256364430801105,0.3355956552069579,0.38711540914544806,0.44295920163494773,0.5158474991620208,0.5910358309352535,0.6639392719086927,0.7447364250346353,0.8353771797909968,0.9249068902353115,0.9999999999999998,0.9869344300475229,0.9001743122410615,0.8094601208083418,0.7181976554875622,0.6661327866315225,0.6629114323664271,0.6571526820314906,0.6506956078536679,0.620226720965247,0.5863278668069067,0.600130048257997,0.6586241133345172,0.6802063259297275,0.6677548778218496,0.6523357205314924,0.6272409590880941,0.5979792931728263,0.5431254489064952,0.483346917560741,0.4206569972074392,0.35369837604414145,0.28341079089529475,0.21620843583917138,0.15279233854647756,0.11529934214551929,0.14416716997632206,0.2034772664536011,0.26789482304030865,0.32942309945357207,0.38480543692668623,0.43842001563898214,0.5075427769311853,0.5755842679742964,0.6488321648735031,0.7345229793612431,0.8182334097651471,0.8589859667273025,0.8027932810226621,0.7276828131356197,0.6479199548316117,0.6384895175161469,0.6494268579626608,0.6421837998017936,0.6437344457479564,0.6127935967329698,0.5760711705927022,0.5660081109128845,0.6046664359722389,0.6345703585117961,0.6346929815742588,0.6388395000356375,0.6257732603972956,0.6017612198404187,0.5718414198617177,0.5391614213753899,0.48216146636374346,0.4148522381709123,0.35260169677336717,0.28487428036697504,0.21319506483003114,0.1409003065839305,0.07851352187299732,0.04919098400062727,0.09653052146199537,0.15551032651210184,0.21732896529065293,0.28100875824489235,0.33910916266938096,0.3934273674652575,0.4509289559195466,0.518599930550202,0.5863309085173982,0.6628705254024332,0.7391565951428805,0.8198352874279176,0.8209693206936828,0.7359755364285141,0.6558754345669227,0.6357776277795095,0.6342185621801824,0.6268514372816403,0.6009895733069037,0.5657058336784828,0.5599950591063572,0.542317471311413,0.49760879928830026,0.5038721386057328,0.5509545287832014,0.5760901835454748,0.5824493787173639,0.573058616272782,0.5474678913368527,0.5409404463318233,0.613023981061015,0.5899060439341193,0.5188278731975051,0.45751369999381697,0.39261828789470177,0.33245764562424784,0.2817431261264598,0.22020702712296658,0.1550012771418836,0.09266186315204061,0.03343802244559768,0.0,0.01381617193837048,0.0698204064776542,0.13902771141749493,0.20771504237536775,0.27612779371002083,0.3424966196324599,0.41139679020176545,0.4768470196797867,0.5205974078730542,0.5513040538807974,0.5754276215430065,0.5830617720530198,0.5806130159266101,0.5833956555650512,0.5625933401552452,0.52010717617647,0.49822073935586597,0.5197466741478756,0.559562119064035,0.5905257486862807,0.5871456695450636,0.57949658920764,0.5362875378962857,0.47527872893302736,0.497203439971299,0.5882085138818629,0.6163420666216279,0.5522824890558022,0.4856133440067014,0.4217632249309331,0.362351462601777,0.3067332002015968,0.24629293385640527,0.18337944514979987,0.1169314617113848,0.06779374758502366,0.06449629327689421,0.10434722191810364,0.16554478752882806,0.23688135866088422,0.30713191232978754,0.3701101185082567,0.4329458159013899,0.4984768537226947,0.5543990364051592,0.5825385517644739,0.6003725856999707,0.6208960582858121,0.6269245684224731,0.5799907713649326,0.5427921585265485,0.5406982736509167,0.5756243276545241,0.6037993324915141,0.6098358902391212,0.6126578584796778,0.5805531369144965,0.6114748220707147,0.678361351796321,0.7680432604172698,0.7647116504387148,0.680363120958926,0.6053204271569779,0.5332389990434636,0.462333773255043,0.39624238297394965,0.3346894086540042,0.2829022157177772,0.22290327239670327,0.1543386014889112,0.09640400864495069,0.05072172706399947,0.0482340337207694,0.09334996705839305,0.152885698353314,0.22618815995091013,0.29338440198521787,0.3603351826541876,0.4279841455348452,0.49365768436255997,0.5458793343028872,0.5722565527324381,0.597670617714513,0.6022927101814364,0.6075094532806709,0.6080063162978357,0.6045551982368618,0.573575827593445,0.5495500476356436,0.5390669752172041,0.5589583991029696,0.5966887074948681,0.6149880882904213,0.6078750217090934,0.6109709823789784,0.642004528389956,0.6857492796157414,0.6208942289186858,0.5463484241540575,0.4839226725586905,0.4182952226097727,0.3661684312783493
0,1,2,3,4,5,6,7,8,9,10,11,12,13,14,15,16,17,18,19,20,21,22,23,24,25,26,27,28,29,30,31,32,33,34,35,36,37,38,39,40,41,42,43,44,45,46,47,48,49,50,51,52,53,54,55,56,57,58,59,60,61,62,63,64,65,66,67,68,69,70,71,72,73,74,75,76,77,78,79,80,81,82,83,84,85,86,87,88,89,90,91,92,93,94,95,96,97,98,99,100,101,102,103,104,105,106,107,108,109,110,111,112,113,114,115,116,117,118,119,120,121,122,123,124,125,126,127,128,129,130,131,132,133,134,135,136,137,138,139,140,141,142,143,144,145,146,147,148,149,150,151,152,153,154,155,156,157,158,159,160,161,162,163,164,165,166,167,168,169,170,171,172,173,174,175,176,177,178,179,180,181,182,183,184,185,186,187,188,189,190,191,192,193,194,195,196,197,198,199,200,201,202,203,204,205,206,207,208,209,210,211,212,213,214,215,216,217,218,219,220,221,222,223,224,225,226,227,228,229,230,231,232,233,234,235,236,237,238,239,240,241,242,243,244,245,246,247,248,249,250,251,252,253,254
0.5263460166158662,0.5098693999502033,0.47665729473240903,0.40569866546151445,0.318730627606743,0.2767433612046215,0.3413093710500892,0.399076864476124,0.4091083854091897,0.40919999257960615,0.40775349884070833,0.4020332257160173,0.47225626188302083,0.570354136774947,0.6681594326526645,0.7712863853136427,0.8683528624498313,0.9539480076001281,1.0,0.97273051413366,0.9015803015714994,0.8372391536017232,0.7847640281368138,0.7219621620821761,0.6283603071802326,0.5432367954859889,0.48497294684996684,0.5627839753747024,0.6122052094318411,0.5469573679168414,0.4767732607892192,0.5072460540299719,0.5384422180224542,0.5173458635462005,0.48478164947664437,0.42346110777532786,0.33949648334697446,0.31526451075276407,0.37819783494737,0.4248839396621542,0.4451564969394233,0.4361418413128675,0.4167906756270816,0.3997572010576227,0.4559480070780846,0.5586575789231509,0.6665368008942458,0.7705636363701349,0.8677653084883619,0.9476774436957234,0.9780048870375806,0.9412302884112931,0.8854354109581473,0.8214278240404327,0.7735591207780259,0.698679070038533,0.611536968020546,0.5493722008104052,0.6103532500243665,0.6653994943218908,0.5958333474180604,0.49597145841008894,0.4351306007526201,0.4324540137427326,0.3933171563142923,0.3493162250879398,0.2900439419127623,0.2266722456309851,0.14654792661240412,0.09096932345604403,0.1417837100928372,0.19795199086905058,0.2393965538603302,0.2833141299821649,0.35599948894968625,0.4294907141980784,0.4412917191820167,0.46740385472189105,0.556395988755717,0.6537863845699219,0.7568380796497851,0.8622827971764591,0.9428989544358051,0.9812175268793788,0.9526954881948408,0.8951819659060067,0.8322609652546173,0.7791824568378813,0.719003204068851,0.6250637691483822,0.5699741085005479,0.6438996130801264,0.687487449314109,0.6107567070349735,0.5185684472425227,0.5160233592889507,0.5185081792182786,0.5023566669688946,0.46248905754012526,0.4104575417085945,0.33189178537019215,0.2738412661433114,0.3117360945009202,0.36356049573913474,0.37244616521567053,0.3691120376227808,0.35854152922656235,0.34938218864543913,0.4028039964852761,0.49775716893666244,0.5976419443111509,0.6993267048971314,0.7959442486526709,0.8932237960102003,0.9568011383023478,0.9545837436088038,0.9068188360741893,0.8516530781179621,0.8034544745566325,0.7344179057651283,0.6449116812457074,0.5639572322564184,0.5882669417451178,0.6324191831055441,0.573508030143397,0.5376349134661385,0.5202861599154938,0.4410357203780073,0.40106891587786375,0.473976036522727,0.4628290221459941,0.41822328359070715,0.4760084876644326,0.5575704883957049,0.6468116656422049,0.7326092513867568,0.7884939777785016,0.8365754455451091,0.8929152520996073,0.8974765941526175,0.83375000635173,0.7384337212141139,0.630098094474854,0.525644742821322,0.43016638797282214,0.3406483670330176,0.28823268394426727,0.2820844689143258,0.30069272460997265,0.3013845545889118,0.28935571400793236,0.236337783206356,0.18057426847052316,0.19874844176105277,0.2800077760156796,0.3606883004219621,0.4187777927523655,0.4545435561083253,0.4445707592055763,0.37820835506056305,0.380372491170371,0.4765730695515753,0.504523331858918,0.4888339921231397,0.547717306638762,0.6303165601022549,0.7085697450273418,0.7662822533745053,0.819041648535463,0.8838272044473552,0.916827610554702,0.85963731627887,0.7711463559165694,0.6696770498257161,0.5600896561431248,0.4625957274156276,0.3881465776950086,0.3735883648371576,0.34567192445293715,0.27600583202696827,0.21556263995466596,0.17534102396917017,0.130629379780264,0.06157268593821996,0.0,0.01740158137330905,0.09763709906327112,0.1819450442130397,0.2463515011088626,0.3039703256302526,0.34666171507402854,0.3501212313621642,0.31287486965498124,0.3752834625822907,0.4720966257952375,0.4687592428811591,0.4768357576408082,0.552700892572056,0.6476585740978176,0.7202716267717508,0.7669421535477277,0.8280678187995427,0.8871816472028131,0.8906612059271692,0.8097291387657775,0.711619910528591,0.6077712529884574,0.5096066434945246,0.4118925470543049,0.34110861028252293,0.33248423823547535,0.36474737673863844,0.37636604527985895,0.3738862691176563,0.3502510453807255,0.2792378703866132,0.2184859428658812,0.24081217804898847,0.32380691191162514,0.39773671978597447,0.44378767189697843,0.4511226808229143,0.4151569344691399,0.3173757939684192,0.2822940951775821,0.370499618394875,0.4640019029837701,0.42137206074692823,0.39557717554915817,0.4647018528341156,0.5547107593942529,0.6456270630087064,0.7243135570140327,0.7777163513015188,0.8373846296665755,0.9091224023425095,0.9180887175675436,0.836048354706663,0.7313299852526725,0.628199753079195,0.5289014510786219,0.43755376861093565,0.3595818944633913,0.3246065907051565,0.3351688176313403,0.34606495993019637,0.34126136340492597,0.3222169127816765,0.2526794899988447,0.19158394888212538,0.2216069045777358,0.30899128076564475,0.39835104035249547,0.4447335683654954,0.46055471017275185
0,1,2,3,4,5,6,7,8,9,10,11,12,13,14,15,16,17,18,19,20,21,22,23,24,25,26,27,28,29,30,31,32,33,34,35,36,37,38,39,40,41,42,43,44,45,46,47,48,49,50,51,52,53,54,55,56,57,58,59,60,61,62,63,64,65,66,67,68,69,70,71,72,73,74,75,76,77,78,79,80,81,82,83,84,85,86,87,88,89,90,91,92,93,94,95,96,97,98,99,100,101,102,103,104,105,106,107,108,109,110,111,112,113,114,115,116,117,118,119,120,121,122,123,124,125,126,127,128,129,130,131,132,133,134,135,136,137,138,139,140,141,142,143,144,145,146,147,148,149,150,151,152,153,154,155,156,157,158,159,160,161,162,163,164,165,166,167,168,169,170,171,172,173,174,175,176,177,178,179,180,181,182,183,184,185,186,187,188,189,190,191,192,193,194,195,196,197,198,199,200,201,202,203,204,205,206,207,208,209,210,211,212,213,214,215,216,217,218,219,220,221,222,223,224,225,226,227,228,229,230,231,232,233,234,235,236,237,238,239,240,241,242,243,244,245,246,247,248,249,250,251,252,253,254
0.5896259238166848,0.5756834752757323,0.5667286129273026,0.5447133857849367,0.5455136307184398,0.558779678534711,0.5579330404025651,0.5753084988321686,0.5736712361121081,0.557928655820116,0.5158853244515522,0.47488074171989725,0.4419485688926761,0.4388654552541378,0.46659351670779126,0.4881509960082133,0.4813257064944021,0.5165988396529877,0.5481674044485705,0.5611138013682497,0.6293914393821329,0.7175380421195268,0.7993280893162602,0.8786469672732435,0.9730565987708522,0.993346445474844,0.9003167813375166,0.7965183711159618,0.6904905843278901,0.5950146868035207,0.5737623775724106,0.5668069574640522,0.526663550177132,0.526213350926537,0.5646446623757502,0.5744342371433384,0.5637598571035394,0.556953008425253,0.5774823913437452,0.5627632026762961,0.560040556319195,0.5664672687451637,0.5667202257873547,0.5899721765751136,0.5515963657179817,0.5095116369614727,0.45598545873535556,0.4274313272908836,0.4213780114606043,0.4297873244361998,0.46181671091304555,0.5064617741955129,0.5383682136448567,0.5509341856555818,0.6000277961340843,0.6738269322138231,0.7635394736859982,0.8637183706825167,0.9396190897736019,1.0,0.9549776116578839,0.8544740425374564,0.7466514580435746,0.6426668471746089,0.577866459515505,0.5629605044514387,0.565861267359637,0.5094894743844178,0.4599395078326385,0.50091174867597,0.5524760131501414,0.5386657834540287,0.5356950965568559,0.5491799732657747,0.5375970750965751,0.5269033393552256,0.5320338833953167,0.5427609053549123,0.5517056892901246,0.5657447751113152,0.5629338976114986,0.5554080730972393,0.5142958519356848,0.46841555883266306,0.4378602602409023,0.440034397217274,0.4515806245840741,0.48801246154338385,0.5160988431312705,0.53293004576854,0.5388992990127219,0.5713977823617058,0.6397907674892878,0.7235716747038947,0.8140531732571672,0.8982550459340608,0.9757037520538354,0.958935757659781,0.8643152846658713,0.7600709173795979,0.6578176388515735,0.5895437414336651,0.5596205844880009,0.523662048564395,0.5170936651229776,0.5647832635907934,0.5622981551843882,0.5478335752299905,0.5646848965728721,0.5563131165876225,0.5420816792194492,0.5354373730215625,0.5578435282886933,0.575662190546232,0.5869468057448892,0.5715939219867687,0.5445305154947939,0.5308064998718263,0.491206586692007,0.4575443899783669,0.45777272730910834,0.4684053845382459,0.49386035830528874,0.5286379564775161,0.49410365189296,0.44097636525832584,0.414601856478376,0.38268851161727513,0.34200543535282435,0.24197457554341906,0.12337076059689478,0.026938060956300358,0.0,0.025814479513344146,0.11998033378104322,0.23853844602080532,0.33733478761364033,0.31888202833155477,0.20804296006503753,0.09040962789681783,0.01552207344532297,0.009758778753409914,0.060002483795547956,0.17330194178260072,0.2904228226794241,0.3788823981367275,0.44091974720947835,0.4731390915662428,0.4970311309564104,0.49956338547661794,0.4925951538356719,0.46337335138415314,0.4499082917366106,0.4615211597249731,0.4710559061212405,0.46629853286206346,0.4773306376413555,0.4728469154786801,0.42475251394195457,0.37833791566093966,0.4048345340444106,0.4671657449706119,0.4909603831420086,0.5185125336924461,0.5996172229605969,0.7004287535747253,0.7829579480302251,0.7425932914230864,0.6546060783680816,0.5683271941534551,0.5035268924008727,0.47350471782216363,0.45243543925859653,0.42646198649163924,0.40693557503186195,0.37952214323268274,0.34939411490303307,0.3526864750368599,0.37921734643650584,0.4229807383446871,0.4594443920945879,0.48086294932887963,0.4699623520811298,0.46921170473997087,0.45124060852730175,0.4390709049133532,0.4530439054501998,0.44914698454500845,0.45977034700831876,0.4655884029387378,0.40894402412462183,0.3808179936081193,0.4138247862619968,0.4695189059513831,0.48763297988332743,0.49788417638132865,0.5806372569307601,0.6798384148163383,0.7854934176591342,0.8210111241120033,0.7386979269745035,0.6457992788378273,0.5547202071791593,0.49346139644468057,0.4658810564771221,0.4621334642329171,0.41796742342376136,0.3812466034039814,0.35648473326479424,0.339945155312146,0.34804016643478963,0.37407075558908964,0.4142898865853222,0.46604672510309664,0.4981267402062399,0.4964410655089191,0.4862951489117102,0.46225082393348327,0.4694336315456007,0.48131431922920687,0.47638697064346536,0.4792485730630762,0.4773379633088983,0.41844471084232593,0.4064633443161729,0.4517013650863615,0.49108345136551934,0.48364809155296573,0.5297930564557563,0.6345421313168154,0.7363951497253356,0.7462270349258668,0.6810143907446466,0.6002518753391364,0.5261478653590763,0.46907570876756965,0.44381712245971583,0.430096742060325,0.3864120362087471,0.38467252692959564,0.3740352059200669,0.3549515203571807,0.3643021909942856,0.39761429712801855,0.44584078350694956,0.48551040568307835,0.4908907658969124,0.48258498459760135,0.4739185567473343,0.4678346627282264,0.4661037784480442,0.4649895714972616,0.4870872202694079,0.4891481240566473,0.513843693203401
0,1,2,3,4,5,6,7,8,9,10,11,12,13,14,15,16,17,18,19,20,21,22,23,24,25,26,27,28,29,30,31,32,33,34,35,36,37,38,39,40,41,42,43,44,45,46,47,48,49,50,51,52,53,54,55,56,57,58,59,60,61,62,63,64,65,66,67,68,69,70,71,72,73,74,75,76,77,78,79,80,81,82,83,84,85,86,87,88,89,90,91,92,93,94,95,96,97,98,99,100,101,102,103,104,105,106,107,108,109,110,111,112,113,114,115,116,117,118,119,120,121,122,123,124,125,126,127,128,129,130,131,132,133,134,135,136,137,138,139,140,141,142,143,144,145,146,147,148,149,150,151,152,153,154,155,156,157,158,159,160,161,162,163,164,165,166,167,168,169,170,171,172,173,174,175,176,177,178,179,180,181,182,183,184,185,186,187,188,189,190,191,192,193,194,195,196,197,198,199,200,201,202,203,204,205,206,207,208,209,210,211,212,213,214,215,216,217,218,219,220,221,222,223,224,225,226,227,228,229,230,231,232,233,234,235,236,237,238,239,240,241,242,243,244,245,246,247,248,249,250,251,252,253,254
0.5896259238166848,0.5756834752757323,0.5667286129273026,0.5447133857849367,0.5455136307184398,0.558779678534711,0.5579330404025651,0.5753084988321686,0.5736712361121081,0.557928655820116,0.5158853244515522,0.47488074171989725,0.4419485688926761,0.4388654552541378,0.46659351670779126,0.4881509960082133,0.4813257064944021,0.5165988396529877,0.5481674044485705,0.5611138013682497,0.6293914393821329,0.7175380421195268,0.7993280893162602,0.8786469672732435,0.9730565987708522,0.993346445474844,0.9003167813375166,0.7965183711159618,0.6904905843278901,0.5950146868035207,0.5737623775724106,0.5668069574640522,0.526663550177132,0.526213350926537,0.5646446623757502,0.5744342371433384,0.5637598571035394,0.556953008425253,0.5774823913437452,0.5627632026762961,0.560040556319195,0.5664672687451637,0.5667202257873547,0.5899721765751136,0.5515963657179817,0.5095116369614727,0.45598545873535556,0.4274313272908836,0.4213780114606043,0.4297873244361998,0.46181671091304555,0.5064617741955129,0.5383682136448567,0.5509341856555818,0.6000277961340843,0.6738269322138231,0.7635394736859982,0.8637183706825167,0.9396190897736019,1.0,0.9549776116578839,0.8544740425374564,0.7466514580435746,0.6426668471746089,0.577866459515505,0.5629605044514387,0.565861267359637,0.5094894743844178,0.4599395078326385,0.50091174867597,0.5524760131501414,0.5386657834540287,0.5356950965568559,0.5491799732657747,0.5375970750965751,0.5269033393552256,0.5320338833953167,0.5427609053549123,0.5517056892901246,0.5657447751113152,0.5629338976114986,0.5554080730972393,0.5142958519356848,0.46841555883266306,0.4378602602409023,0.440034397217274,0.4515806245840741,0.48801246154338385,0.5160988431312705,0.53293004576854,0.5388992990127219,0.5713977823617058,0.6397907674892878,0.7235716747038947,0.8140531732571672,0.8982550459340608,0.9757037520538354,0.958935757659781,0.8643152846658713,0.7600709173795979,0.6578176388515735,0.5895437414336651,0.5596205844880009,0.523662048564395,0.5170936651229776,0.5647832635907934,0.5622981551843882,0.5478335752299905,0.5646848965728721,0.5563131165876225,0.5420816792194492,0.5354373730215625,0.5578435282886933,0.575662190546232,0.5869468057448892,0.5715939219867687,0.5445305154947939,0.5308064998718263,0.491206586692007,0.4575443899783669,0.45777272730910834,0.4684053845382459,0.49386035830528874,0.5286379564775161,0.49410365189296,0.44097636525832584,0.414601856478376,0.38268851161727513,0.34200543535282435,0.24197457554341906,0.12337076059689478,0.026938060956300358,0.0,0.025814479513344146,0.11998033378104322,0.23853844602080532,0.33733478761364033,0.31888202833155477,0.20804296006503753,0.09040962789681783,0.01552207344532297,0.009758778753409914,0.060002483795547956,0.17330194178260072,0.2904228226794241,0.3788823981367275,0.44091974720947835,0.4731390915662428,0.4970311309564104,0.49956338547661794,0.4925951538356719,0.46337335138415314,0.4499082917366106,0.4615211597249731,0.4710559061212405,0.46629853286206346,0.4773306376413555,0.4728469154786801,0.42475251394195457,0.37833791566093966,0.4048345340444106,0.4671657449706119,0.4909603831420086,0.5185125336924461,0.5996172229605969,0.7004287535747253,0.7829579480302251,0.7425932914230864,0.6546060783680816,0.5683271941534551,0.5035268924008727,0.47350471782216363,0.45243543925859653,0.42646198649163924,0.40693557503186195,0.37952214323268274,0.34939411490303307,0.3526864750368599,0.37921734643650584,0.4229807383446871,0.4594443920945879,0.48086294932887963,0.4699623520811298,0.46921170473997087,0.45124060852730175,0.4390709049133532,0.4530439054501998,0.44914698454500845,0.45977034700831876,0.4655884029387378,0.40894402412462183,0.3808179936081193,0.4138247862619968,0.4695189059513831,0.48763297988332743,0.49788417638132865,0.5806372569307601,0.6798384148163383,0.7854934176591342,0.8210111241120033,0.7386979269745035,0.6457992788378273,0.5547202071791593,0.49346139644468057,0.4658810564771221,0.4621334642329171,0.41796742342376136,0.3812466034039814,0.35648473326479424,0.339945155312146,0.34804016643478963,0.37407075558908964,0.4142898865853222,0.46604672510309664,0.4981267402062399,0.4964410655089191,0.4862951489117102,0.46225082393348327,0.4694336315456007,0.48131431922920687,0.47638697064346536,0.4792485730630762,0.4773379633088983,0.41844471084232593,0.4064633443161729,0.4517013650863615,0.49108345136551934,0.48364809155296573,0.5297930564557563,0.6345421313168154,0.7363951497253356,0.7462270349258668,0.6810143907446466,0.6002518753391364,0.5261478653590763,0.46907570876756965,0.44381712245971583,0.430096742060325,0.3864120362087471,0.38467252692959564,0.3740352059200669,0.3549515203571807,0.3643021909942856,0.39761429712801855,0.44584078350694956,0.48551040568307835,0.4908907658969124,0.48258498459760135,0.4739185567473343,0.4678346627282264,0.4661037784480442,0.4649895714972616,0.4870872202694079,0.4891481240566473,0.513843693203401
0,1,2,3,4,5,6,7,8,9,10,11,12,13,14,15,16,17,18,19,20,21,22,23,24,25,26,27,28,29,30,31,32,33,34,35,36,37,38,39,40,41,42,43,44,45,46,47,48,49,50,51,52,53,54,55,56,57,58,59,60,61,62,63,64,65,66,67,68,69,70,71,72,73,74,75,76,77,78,79,80,81,82,83,84,85,86,87,88,89,90,91,92,93,94,95,96,97,98,99,100,101,102,103,104,105,106,107,108,109,110,111,112,113,114,115,116,117,118,119,120,121,122,123,124,125,126,127,128,129,130,131,132,133,134,135,136,137,138,139,140,141,142,143,144,145,146,147,148,149,150,151,152,153,154,155,156,157,158,159,160,161,162,163,164,165,166,167,168,169,170,171,172,173,174,175,176,177,178,179,180,181,182,183,184,185,186,187,188,189,190,191,192,193,194,195,196,197,198,199,200,201,202,203,204,205,206,207,208,209,210,211,212,213,214,215,216,217,218,219,220,221,222,223,224,225,226,227,228,229,230,231,232,233,234,235,236,237,238,239,240,241,242,243,244,245,246,247,248,249,250,251,252,253,254
0.266064026878563,0.25290097519997223,0.2558833610576783,0.26449855302091807,0.2997774200117038,0.35565787752330946,0.4312456461594465,0.499471747133994,0.5598473341445955,0.5470433965364054,0.4896733865568903,0.4191955490007815,0.3502879266281824,0.32743868011849475,0.30629880883386296,0.287490404060216,0.2406701961338058,0.19037781569279755,0.22710893900892026,0.32355823683467033,0.4217561307345994,0.5203194012513559,0.623879604859654,0.7238131538667654,0.8241517063968642,0.9210556622898975,1.0,0.9736616366608986,0.8806172553764045,0.7832500249867826,0.6810011764311339,0.5819651895771218,0.48138445062045543,0.3886534162884092,0.3704492958224006,0.3862746101486674,0.3939421946523134,0.3803748334074628,0.37978852394172735,0.40564623781006315,0.4132279828446883,0.41826758792789764,0.41201942448939377,0.39377579226867443,0.3977200358331241,0.39563424761521837,0.41719634980758835,0.4073526989934413,0.43970263477960714,0.4908160608026675,0.5527254315881747,0.5984753037129957,0.5718139139012517,0.5052278668191019,0.44609120935886404,0.38832110906037576,0.3546606643525796,0.33126150996728265,0.3003545267728689,0.24746103316564705,0.2317119968065553,0.3089615208023484,0.4027584071381156,0.501347256412199,0.6015175750261159,0.698692703910758,0.794756868872506,0.8929450920036421,0.9760872895454087,0.9439647770145285,0.8506372493474399,0.753336157119747,0.652451775821032,0.5532788914346822,0.44880815691855336,0.3629552704614416,0.34782729009103663,0.361300221921081,0.3464208454203179,0.3353380170882634,0.36128503614194685,0.3563852347344074,0.359973309952633,0.3600653252309747,0.3415302840851111,0.34026816411928085,0.3469299674435127,0.3490769338918347,0.3491557586148808,0.36641681506573276,0.3769589146713539,0.4121497030867225,0.4748327459595818,0.5441712517370876,0.5907188378156714,0.577264780024703,0.5131818940478179,0.4465942958641782,0.3892710027950961,0.3474187037136396,0.34980044707654834,0.31155894519110605,0.27867682510007175,0.21805520258323874,0.16892393870859124,0.22239638036357068,0.319106606949362,0.4177402104341814,0.51972677949116,0.6208085660135931,0.7203546138025283,0.8262523887500879,0.9269737800838285,0.9950286353440752,0.9498580351629999,0.8544479257392541,0.7572577738966872,0.6577742185925941,0.552833640618752,0.45281756936858475,0.3583058034632445,0.3436432009301802,0.35410766498922497,0.3386154810887452,0.34848219039241135,0.33258224779133005,0.3365324944028347,0.30363646980197156,0.2724914867235486,0.2464341336444993,0.17979800055381423,0.07424118636215549,0.0,0.006923075604334805,0.08826330273767002,0.19273326780771205,0.26088406597161384,0.28764394681077254,0.2758546120538061,0.2773735204415555,0.27719868784772084,0.2413023876028464,0.2891989717577319,0.38323125299431826,0.482229606761722,0.5876466460602825,0.6882114901466609,0.770296579367594,0.7241053620135469,0.6250192763429068,0.5217363717102965,0.4224507545125591,0.3155281168808113,0.21458676038069013,0.12827333081861925,0.09008912206967468,0.12878329910598119,0.19963194922271033,0.23841988794730273,0.27060374664896925,0.26583781022054387,0.31159662701963997,0.36427673225550494,0.42688835552530024,0.49393143423996655,0.5329834578914272,0.48642008355977673,0.4131642315331798,0.3571548578746637,0.31930327419097315,0.3051467891339148,0.2951778190619301,0.28534511609573476,0.2925710078767767,0.2758894683814286,0.28947636355505546,0.282948110969405,0.28545568928111686,0.2853523060257257,0.26964984576129947,0.27781939993375593,0.2837704982553184,0.2995390227948551,0.29266613149083254,0.26544966052282737,0.3085816126902321,0.40397777833802184,0.5053757509112771,0.6051713497207842,0.7026828502538707,0.7003685285642924,0.6010188740886329,0.4952718129944773,0.3989041425639561,0.3047096127704525,0.21312795803125129,0.1561985765151852,0.18358990242420337,0.23736001630641734,0.27490702315135174,0.301766953625068,0.32723614850457805,0.3778335076950743,0.43466709192974795,0.50529586812796,0.5322724648826811,0.4819102743211108,0.42287524277428234,0.3723223978731469,0.3363393555408365,0.35177710253127037,0.34164788972574733,0.339736500700599,0.3358065486987649,0.3456916800163641,0.36914192433156323,0.36632943301119925,0.35655369757235933,0.3569404572886432,0.33042484744017964,0.32611387328730457,0.33392052783845294,0.3281920673545331,0.3093060231011031,0.27893211452758804,0.3357519570845846,0.4330262859645342,0.5344002749689887,0.634818535829262,0.7303713137543184,0.7193507796268288,0.6201493771036133,0.520251161857892,0.4210101812257294,0.3196947838891928,0.2224965791914859,0.13752020233905515,0.11973739204152123,0.16794526359511952,0.22329353974376476,0.2352511966789561,0.25513464388352425,0.2563102825938519,0.3014598192291835,0.3806836197761121,0.4500243268987125,0.4797920912082816,0.42661556936517187,0.345166267852417,0.28929592553109584,0.2378059019858889,0.1968169097044723,0.18021157061655213,0.20025051244311642,0.20907940243254552
0,1,2,3,4,5,6,7,8,9,10,11,12,13,14,15,16,17,18,19,20,21,22,23,24,25,26,27,28,29,30,31,32,33,34,35,36,37,38,39,40,41,42,43,44,45,46,47,48,49,50,51,52,53,54,55,56,57,58,59,60,61,62,63,64,65,66,67,68,69,70,71,72,73,74,75,76,77,78,79,80,81,82,83,84,85,86,87,88,89,90,91,92,93,94,95,96,97,98,99,100,101,102,103,104,105,106,107,108,109,110,111,112,113,114,115,116,117,118,119,120,121,122,123,124,125,126,127,128,129,130,131,132,133,134,135,136,137,138,139,140,141,142,143,144,145,146,147,148,149,150,151,152,153,154,155,156,157,158,159,160,161,162,163,164,165,166,167,168,169,170,171,172,173,174,175,176,177,178,179,180,181,182,183,184,185,186,187,188,189,190,191,192,193,194,195,196,197,198,199,200,201,202,203,204,205,206,207,208,209,210,211,212,213,214,215,216,217,218,219,220,221,222,223,224,225,226,227,228,229,230,231,232,233,234,235,236,237,238,239,240,241,242,243,244,245,246,247,248,249,250,251,252,253,254
0.266064026878563,0.25290097519997223,0.2558833610576783,0.26449855302091807,0.2997774200117038,0.35565787752330946,0.4312456461594465,0.499471747133994,0.5598473341445955,0.5470433965364054,0.4896733865568903,0.4191955490007815,0.3502879266281824,0.32743868011849475,0.30629880883386296,0.287490404060216,0.2406701961338058,0.19037781569279755,0.22710893900892026,0.32355823683467033,0.4217561307345994,0.5203194012513559,0.623879604859654,0.7238131538667654,0.8241517063968642,0.9210556622898975,1.0,0.9736616366608986,0.8806172553764045,0.7832500249867826,0.6810011764311339,0.5819651895771218,0.48138445062045543,0.3886534162884092,0.3704492958224006,0.3862746101486674,0.3939421946523134,0.3803748334074628,0.37978852394172735,0.40564623781006315,0.4132279828446883,0.41826758792789764,0.41201942448939377,0.39377579226867443,0.3977200358331241,0.39563424761521837,0.41719634980758835,0.4073526989934413,0.43970263477960714,0.4908160608026675,0.5527254315881747,0.5984753037129957,0.5718139139012517,0.5052278668191019,0.44609120935886404,0.38832110906037576,0.3546606643525796,0.33126150996728265,0.3003545267728689,0.24746103316564705,0.2317119968065553,0.3089615208023484,0.4027584071381156,0.501347256412199,0.6015175750261159,0.698692703910758,0.794756868872506,0.8929450920036421,0.9760872895454087,0.9439647770145285,0.8506372493474399,0.753336157119747,0.652451775821032,0.5532788914346822,0.44880815691855336,0.3629552704614416,0.34782729009103663,0.361300221921081,0.3464208454203179,0.3353380170882634,0.36128503614194685,0.3563852347344074,0.359973309952633,0.3600653252309747,0.3415302840851111,0.34026816411928085,0.3469299674435127,0.3490769338918347,0.3491557586148808,0.36641681506573276,0.3769589146713539,0.4121497030867225,0.4748327459595818,0.5441712517370876,0.5907188378156714,0.577264780024703,0.5131818940478179,0.4465942958641782,0.3892710027950961,0.3474187037136396,0.34980044707654834,0.31155894519110605,0.27867682510007175,0.21805520258323874,0.16892393870859124,0.22239638036357068,0.319106606949362,0.4177402104341814,0.51972677949116,0.6208085660135931,0.7203546138025283,0.8262523887500879,0.9269737800838285,0.9950286353440752,0.9498580351629999,0.8544479257392541,0.7572577738966872,0.6577742185925941,0.552833640618752,0.45281756936858475,0.3583058034632445,0.3436432009301802,0.35410766498922497,0.3386154810887452,0.34848219039241135,0.33258224779133005,0.3365324944028347,0.30363646980197156,0.2724914867235486,0.2464341336444993,0.17979800055381423,0.07424118636215549,0.0,0.006923075604334805,0.08826330273767002,0.19273326780771205,0.26088406597161384,0.28764394681077254,0.2758546120538061,0.2773735204415555,0.27719868784772084,0.2413023876028464,0.2891989717577319,0.38323125299431826,0.482229606761722,0.5876466460602825,0.6882114901466609,0.770296579367594,0.7241053620135469,0.6250192763429068,0.5217363717102965,0.4224507545125591,0.3155281168808113,0.21458676038069013,0.12827333081861925,0.09008912206967468,0.12878329910598119,0.19963194922271033,0.23841988794730273,0.27060374664896925,0.26583781022054387,0.31159662701963997,0.36427673225550494,0.42688835552530024,0.49393143423996655,0.5329834578914272,0.48642008355977673,0.4131642315331798,0.3571548578746637,0.31930327419097315,0.3051467891339148,0.2951778190619301,0.28534511609573476,0.2925710078767767,0.2758894683814286,0.28947636355505546,0.282948110969405,0.28545568928111686,0.2853523060257257,0.26964984576129947,0.27781939993375593,0.2837704982553184,0.2995390227948551,0.29266613149083254,0.26544966052282737,0.3085816126902321,0.40397777833802184,0.5053757509112771,0.6051713497207842,0.7026828502538707,0.7003685285642924,0.6010188740886329,0.4952718129944773,0.3989041425639561,0.3047096127704525,0.21312795803125129,0.1561985765151852,0.18358990242420337,0.23736001630641734,0.27490702315135174,0.301766953625068,0.32723614850457805,0.3778335076950743,0.43466709192974795,0.50529586812796,0.5322724648826811,0.4819102743211108,0.42287524277428234,0.3723223978731469,0.3363393555408365,0.35177710253127037,0.34164788972574733,0.339736500700599,0.3358065486987649,0.3456916800163641,0.36914192433156323,0.36632943301119925,0.35655369757235933,0.3569404572886432,0.33042484744017964,0.32611387328730457,0.33392052783845294,0.3281920673545331,0.3093060231011031,0.27893211452758804,0.3357519570845846,0.4330262859645342,0.5344002749689887,0.634818535829262,0.7303713137543184,0.7193507796268288,0.6201493771036133,0.520251161857892,0.4210101812257294,0.3196947838891928,0.2224965791914859,0.13752020233905515,0.11973739204152123,0.16794526359511952,0.22329353974376476,0.2352511966789561,0.25513464388352425,0.2563102825938519,0.3014598192291835,0.3806836197761121,0.4500243268987125,0.4797920912082816,0.42661556936517187,0.345166267852417,0.28929592553109584,0.2378059019858889,0.1968169097044723,0.18021157061655213,0.20025051244311642,0.20907940243254552
0,1,2,3,4,5,6,7,8,9,10,11,12,13,14,15,16,17,18,19,20,21,22,23,24,25,26,27,28,29,30,31,32,33,34,35,36,37,38,39,40,41,42,43,44,45,46,47,48,49,50,51,52,53,54,55,56,57,58,59,60,61,62,63,64,65,66,67,68,69,70,71,72,73,74,75,76,77,78,79,80,81,82,83,84,85,86,87,88,89,90,91,92,93,94,95,96,97,98,99,100,101,102,103,104,105,106,107,108,109,110,111,112,113,114,115,116,117,118,119,120,121,122,123,124,125,126,127,128,129,130,131,132,133,134,135,136,137,138,139,140,141,142,143,144,145,146,147,148,149,150,151,152,153,154,155,156,157,158,159,160,161,162,163,164,165,166,167,168,169,170,171,172,173,174,175,176,177,178,179,180,181,182,183,184,185,186,187,188,189,190,191,192,193,194,195,196,197,198,199,200,201,202,203,204,205,206,207,208,209,210,211,212,213,214,215,216,217,218,219,220,221,222,223,224,225,226,227,228,229,230,231,232,233,234,235,236,237,238,239,240,241,242,243,244,245,246,247,248,249,250,251,252,253,254
0.6737418282525947,0.6865203892591785,0.7426823418298354,0.8180865325682452,0.8981852621397914,0.9702398222216897,1.0,0.9419678185915319,0.8663467025220215,0.7887101213985774,0.7393161576479659,0.7388707408452602,0.7333391373918237,0.7166124357728947,0.6704191585500556,0.5729531751502477,0.4562019215752806,0.46941974834253575,0.5989350244525369,0.7130829852160647,0.7277091285883706,0.7058193520071354,0.6832397095179199,0.6310402716933283,0.5557007595795067,0.5746229318834017,0.6558626022033551,0.6885453595252509,0.6902151122261051,0.7134737185809752,0.7777581057248284,0.8524616303002515,0.9347041480476221,0.9687258499463662,0.9092303370749688,0.8392483986710957,0.7781197742795598,0.7376518488544099,0.7245748833894874,0.7302229478526061,0.7075966680946912,0.6589717608180221,0.5539735249603011,0.4771593438308295,0.5573075475799762,0.6805968302930787,0.7841284404427125,0.7706313216714329,0.7229799712728076,0.7004564235070792,0.642598458524807,0.6061871822276661,0.6614046493600387,0.7035250050683906,0.6934688976540846,0.715087876798123,0.7737073552180087,0.8403981412772525,0.9189361846227473,0.9733328167651116,0.9550775012142005,0.8749009243497423,0.8109030068505758,0.77395371860763,0.7442553515566463,0.7308508486155967,0.7087450277837175,0.6435541144610748,0.5222014208227597,0.43698082283577033,0.5322959063276076,0.6575541849240096,0.777371283644674,0.8191932230545591,0.7652569918781236,0.7292462697328177,0.6835724249352308,0.6165278368946843,0.6036396946493219,0.6775161828783278,0.7205212984844751,0.7039821486061024,0.7022099227219067,0.7428374138145468,0.8144665220234084,0.8895719101926152,0.9587305588987176,0.9795773236723821,0.9235641114666184,0.8519243234763079,0.7819674854435927,0.7326383784110146,0.7196224291177522,0.7289494204787474,0.7032111567320185,0.6420452560420808,0.5288798443676477,0.4407855086603476,0.5105975082420544,0.6357437558273666,0.7528940673763582,0.7651959813833309,0.7206496371201467,0.6788925215540398,0.6284269772925053,0.5650815439059316,0.6038752686226907,0.6703171071856264,0.6946145500797978,0.6880698860170553,0.7230663082268292,0.7755052376538005,0.8429312070059476,0.9265910865743994,0.9624227723682761,0.9134215009196738,0.8377384372836509,0.7675814461066022,0.7210772865364623,0.6699003131651402,0.6682253638943862,0.7116593949886041,0.7799106651964913,0.8568162300355961,0.8543043628567415,0.7771554183679421,0.7085852141911353,0.6564655763021285,0.6234869119706175,0.6238366426377127,0.5862845135772559,0.5108533263548538,0.4818906019504072,0.5361661399121065,0.5986428082481368,0.6416061662262669,0.6538632060268057,0.6039831984556128,0.48265269316251436,0.35624092907788585,0.22214301567932404,0.0824422131345206,0.0,0.06761117878954526,0.19110251766203046,0.31780637761701547,0.4420686939864926,0.5608548555523551,0.6407732600835643,0.658843265425936,0.6495574835800215,0.6720674079180435,0.7223383894524265,0.7863743106933514,0.8538141872652871,0.8858535525413669,0.8268440985937424,0.7518499335589919,0.6794324052567902,0.6345939436856725,0.6315496478271645,0.6378133710919132,0.6151950102899271,0.5372484260244965,0.5307024420889239,0.5931208705385567,0.6584038183339818,0.6761168492818652,0.6761014392001545,0.5828844231404062,0.4576764183914781,0.33140119724779193,0.19716071857016315,0.07442695719764059,0.0555945697667517,0.1697179244428515,0.29599093017006917,0.4211492539724122,0.5450584925045798,0.6359659551743411,0.6603779380386081,0.6723976939367886,0.6984982976182743,0.7377302761642688,0.7958951952053139,0.8765410522303259,0.9109067854695918,0.8383958162817011,0.7592458071077872,0.7020589756177347,0.6524774846396104,0.6317172009327168,0.6290014420838435,0.580249505465396,0.5165334669386983,0.5311323352115602,0.5894783740257812,0.6423826012672453,0.6450092470566284,0.6361554713147379,0.5292676415813533,0.4027563777007006,0.270747122408145,0.14417090641703245,0.0327475257374914,0.051915084004797496,0.16541501698302907,0.2867703275213538,0.3911191497615585,0.5036951198272677,0.6105427947381008,0.6440110571307263,0.64858650582193,0.6612636480425675,0.6932907890823001,0.7509258255499383,0.816751394681837,0.8670804388093014,0.8189677461146534,0.7428267567441185,0.6781816293269252,0.6280160702658448,0.6076918356420817,0.6167439787370288,0.5895789858996991,0.5102480877052407,0.45261424071302025,0.47965346094362626,0.5589216837373154,0.6164355559300132,0.6270742692765614,0.5656424905486941,0.44756494877563835,0.32503663654124315,0.20061768244291756,0.06654591235915497,0.02710690448012576,0.13051006576238366,0.25727863092435665,0.3869061324217218,0.5125008983348245,0.6121963881540533,0.6551281116150434,0.6670370977802151,0.6649416201663918,0.682552551534167,0.7377075320116027,0.8151552429703361,0.8856205165588529,0.8846145481777912,0.8108516810303406,0.7411622490950682,0.6674405638883698,0.6183137286192295,0.59971592703402
0,1,2,3,4,5,6,7,8,9,10,11,12,13,14,15,16,17,18,19,20,21,22,23,24,25,26,27,28,29,30,31,32,33,34,35,36,37,38,39,40,41,42,43,44,45,46,47,48,49,50,51,52,53,54,55,56,57,58,59,60,61,62,63,64,65,66,67,68,69,70,71,72,73,74,75,76,77,78,79,80,81,82,83,84,85,86,87,88,89,90,91,92,93,94,95,96,97,98,99,100,101,102,103,104,105,106,107,108,109,110,111,112,113,114,115,116,117,118,119,120,121,122,123,124,125,126,127,128,129,130,131,132,133,134,135,136,137,138,139,140,141,142,143,144,145,146,147,148,149,150,151,152,153,154,155,156,157,158,159,160,161,162,163,164,165,166,167,168,169,170,171,172,173,174,175,176,177,178,179,180,181,182,183,184,185,186,187,188,189,190,191,192,193,194,195,196,197,198,199,200,201,202,203,204,205,206,207,208,209,210,211,212,213,214,215,216,217,218,219,220,221,222,223,224,225,226,227,228,229,230,231,232,233,234,235,236,237,238,239,240,241,242,243,244,245,246,247,248,249,250,251,252,253,254
0.6737418282525947,0.6865203892591785,0.7426823418298354,0.8180865325682452,0.8981852621397914,0.9702398222216897,1.0,0.9419678185915319,0.8663467025220215,0.7887101213985774,0.7393161576479659,0.7388707408452602,0.7333391373918237,0.7166124357728947,0.6704191585500556,0.5729531751502477,0.4562019215752806,0.46941974834253575,0.5989350244525369,0.7130829852160647,0.7277091285883706,0.7058193520071354,0.6832397095179199,0.6310402716933283,0.5557007595795067,0.5746229318834017,0.6558626022033551,0.6885453595252509,0.6902151122261051,0.7134737185809752,0.7777581057248284,0.8524616303002515,0.9347041480476221,0.9687258499463662,0.9092303370749688,0.8392483986710957,0.7781197742795598,0.7376518488544099,0.7245748833894874,0.7302229478526061,0.7075966680946912,0.6589717608180221,0.5539735249603011,0.4771593438308295,0.5573075475799762,0.6805968302930787,0.7841284404427125,0.7706313216714329,0.7229799712728076,0.7004564235070792,0.642598458524807,0.6061871822276661,0.6614046493600387,0.7035250050683906,0.6934688976540846,0.715087876798123,0.7737073552180087,0.8403981412772525,0.9189361846227473,0.9733328167651116,0.9550775012142005,0.8749009243497423,0.8109030068505758,0.77395371860763,0.7442553515566463,0.7308508486155967,0.7087450277837175,0.6435541144610748,0.5222014208227597,0.43698082283577033,0.5322959063276076,0.6575541849240096,0.777371283644674,0.8191932230545591,0.7652569918781236,0.7292462697328177,0.6835724249352308,0.6165278368946843,0.6036396946493219,0.6775161828783278,0.7205212984844751,0.7039821486061024,0.7022099227219067,0.7428374138145468,0.8144665220234084,0.8895719101926152,0.9587305588987176,0.9795773236723821,0.9235641114666184,0.8519243234763079,0.7819674854435927,0.7326383784110146,0.7196224291177522,0.7289494204787474,0.7032111567320185,0.6420452560420808,0.5288798443676477,0.4407855086603476,0.5105975082420544,0.6357437558273666,0.7528940673763582,0.7651959813833309,0.7206496371201467,0.6788925215540398,0.6284269772925053,0.5650815439059316,0.6038752686226907,0.6703171071856264,0.6946145500797978,0.6880698860170553,0.7230663082268292,0.7755052376538005,0.8429312070059476,0.9265910865743994,0.9624227723682761,0.9134215009196738,0.8377384372836509,0.7675814461066022,0.7210772865364623,0.6699003131651402,0.6682253638943862,0.7116593949886041,0.7799106651964913,0.8568162300355961,0.8543043628567415,0.7771554183679421,0.7085852141911353,0.6564655763021285,0.6234869119706175,0.6238366426377127,0.5862845135772559,0.5108533263548538,0.4818906019504072,0.5361661399121065,0.5986428082481368,0.6416061662262669,0.6538632060268057,0.6039831984556128,0.48265269316251436,0.35624092907788585,0.22214301567932404,0.0824422131345206,0.0,0.06761117878954526,0.19110251766203046,0.31780637761701547,0.4420686939864926,0.5608548555523551,0.6407732600835643,0.658843265425936,0.6495574835800215,0.6720674079180435,0.7223383894524265,0.7863743106933514,0.8538141872652871,0.8858535525413669,0.8268440985937424,0.7518499335589919,0.6794324052567902,0.6345939436856725,0.6315496478271645,0.6378133710919132,0.6151950102899271,0.5372484260244965,0.5307024420889239,0.5931208705385567,0.6584038183339818,0.6761168492818652,0.6761014392001545,0.5828844231404062,0.4576764183914781,0.33140119724779193,0.19716071857016315,0.07442695719764059,0.0555945697667517,0.1697179244428515,0.29599093017006917,0.4211492539724122,0.5450584925045798,0.6359659551743411,0.6603779380386081,0.6723976939367886,0.6984982976182743,0.7377302761642688,0.7958951952053139,0.8765410522303259,0.9109067854695918,0.8383958162817011,0.7592458071077872,0.7020589756177347,0.6524774846396104,0.6317172009327168,0.6290014420838435,0.580249505465396,0.5165334669386983,0.5311323352115602,0.5894783740257812,0.6423826012672453,0.6450092470566284,0.6361554713147379,0.5292676415813533,0.4027563777007006,0.270747122408145,0.14417090641703245,0.0327475257374914,0.051915084004797496,0.16541501698302907,0.2867703275213538,0.3911191497615585,0.5036951198272677,0.6105427947381008,0.6440110571307263,0.64858650582193,0.6612636480425675,0.6932907890823001,0.7509258255499383,0.816751394681837,0.8670804388093014,0.8189677461146534,0.7428267567441185,0.6781816293269252,0.6280160702658448,0.6076918356420817,0.6167439787370288,0.5895789858996991,0.5102480877052407,0.45261424071302025,0.47965346094362626,0.5589216837373154,0.6164355559300132,0.6270742692765614,0.5656424905486941,0.44756494877563835,0.32503663654124315,0.20061768244291756,0.06654591235915497,0.02710690448012576,0.13051006576238366,0.25727863092435665,0.3869061324217218,0.5125008983348245,0.6121963881540533,0.6551281116150434,0.6670370977802151,0.6649416201663918,0.682552551534167,0.7377075320116027,0.8151552429703361,0.8856205165588529,0.8846145481777912,0.8108516810303406,0.7411622490950682,0.6674405638883698,0.6183137286192295,0.59971592703402
0,1,2,3,4,5,6,7,8,9,10,11,12,13,14,15,16,17,18,19,20,21,22,23,24,25,26,27,28,29,30,31,32,33,34,35,36,37,38,39,40,41,42,43,44,45,46,47,48,49,50,51,52,53,54,55,56,57,58,59,60,61,62,63,64,65,66,67,68,69,70,71,72,73,74,75,76,77,78,79,80,81,82,83,84,85,86,87,88,89,90,91,92,93,94,95,96,97,98,99,100,101,102,103,104,105,106,107,108,109,110,111,112,113,114,115,116,117,118,119,120,121,122,123,124,125,126,127,128,129,130,131,132,133,134,135,136,137,138,139,140,141,142,143,144,145,146,147,148,149,150,151,152,153,154,155,156,157,158,159,160,161,162,163,164,165,166,167,168,169,170,171,172,173,174,175,176,177,178,179,180,181,182,183,184,185,186,187,188,189,190,191,192,193,194,195,196,197,198,199,200,201,202,203,204,205,206,207,208,209,210,211,212,213,214,215,216,217,218,219,220,221,222,223,224,225,226,227,228,229,230,231,232,233,234,235,236,237,238,239,240,241,242,243,244,245,246,247,248,249,250,251,252,253,254
0.8977403231435095,0.9010260393250049,0.8546352285842636,0.7830167104065313,0.694635528542487,0.5841321644560842,0.47063089373745903,0.4381030474304537,0.5267812433052903,0.6335590908099138,0.7426115126716479,0.8368841763635073,0.9011788021947336,0.9312665197233989,0.9510420497087253,0.9537275192221619,0.9659402739614316,0.9673944905113188,1.0,0.8915365982104242,0.7551760041258384,0.6054852047008108,0.4559669970620006,0.3213197622328101,0.26432935407299896,0.3754346737213834,0.5220330011593268,0.6696548795715125,0.8004604397955797,0.8941782753994016,0.9109400694527823,0.8625147939268536,0.8325527027866175,0.8628433073958326,0.8942243685065909,0.8740890621739101,0.8603799837479689,0.8425832261995638,0.866264469148947,0.8739292602062982,0.8755967066388313,0.8989379075520221,0.8903021212771951,0.8434109605780136,0.7700575487897421,0.6808416431816418,0.5824030113953138,0.47085073933624244,0.42470234169645904,0.5038519355521096,0.6054105772536174,0.7146563561282293,0.8088413645700325,0.8871955034429337,0.950072730364083,0.974942224928514,0.984843182637952,0.9747571479186394,0.9410084632049007,0.9232575156210459,0.8082760480215607,0.6650513766835724,0.5199433923870411,0.38216616507909196,0.25044447420973803,0.28106218818047957,0.42020596668202437,0.5560550375409434,0.6939046058177367,0.8227506275298069,0.873955445887606,0.840190253301127,0.7800134612130178,0.7706860822079031,0.8136084751733086,0.8541207009521128,0.8731610719025253,0.8643083901771336,0.8459249343983295,0.8533416684620785,0.8531244588123159,0.8806508509779687,0.8786233547022113,0.8328818422558819,0.777039036775081,0.6961963250727727,0.584335821146428,0.47311535968800866,0.37355737578093473,0.3869735882560006,0.4896636776717527,0.5985500899287284,0.7020418641093116,0.7801360802766335,0.8557012751187427,0.8828933048554006,0.9154859371126403,0.9494156706911201,0.914449442075548,0.9003155874044455,0.8625381348008823,0.7246153351728557,0.5736905061987154,0.4238359916037693,0.28960300414928675,0.23978558488200852,0.36304733644150344,0.5045996059177051,0.6426781290617494,0.77188083346869,0.8591017109307972,0.871909725899763,0.8298810253134259,0.8193338743855123,0.8737598344045461,0.917021711767025,0.9615764274225396,0.946938542500587,0.9507123615387365,0.9457129452349533,0.9362199608342094,0.9513442786297142,0.958591810702853,0.9310028221066076,0.9053815607391398,0.8288146407320482,0.7512996961942484,0.7745708412675323,0.8388540269450946,0.8660054305697229,0.8901703021574816,0.86976661069416,0.8616359941769081,0.8631059005923158,0.8711658133362414,0.8557088938409825,0.8536043687127162,0.8054431766107348,0.753296841531724,0.7174519176423604,0.7591155670283398,0.8018492762015783,0.7303867163436344,0.5996519114482672,0.452778805500885,0.3165485612769263,0.17267326045742948,0.051961457343747686,0.0,0.10165053745873154,0.24416913318095101,0.3833861738332094,0.5335231606485351,0.6709114187602139,0.7651699775024272,0.8431958206468266,0.8537909720812769,0.818131087122751,0.7933232163665349,0.7272543936219131,0.6368124711144181,0.5356477720015236,0.4312483815550241,0.3324918738232303,0.2561920972814895,0.2975888851149584,0.3974718368077479,0.5213366265419861,0.6256006250811699,0.7161624943719596,0.7734290126806416,0.8031382636512152,0.7801494361832852,0.7726465158864433,0.7670511435364671,0.7763293305540673,0.7937782280111105,0.7872050920265572,0.7671865562030873,0.7181707340597776,0.6828545512420123,0.7042481613588567,0.775989773020926,0.7853042189310893,0.675837066157591,0.537705892650929,0.3974566436441811,0.26870072938186107,0.14770311079622456,0.045328395002871336,0.07413688948220987,0.20455186114749946,0.35254804360803815,0.48876628401731725,0.6367495725651584,0.7653744109497658,0.8511481973851263,0.9111688717712876,0.9144170513597683,0.8800247085263107,0.814868375946443,0.7353359960561345,0.641201826285605,0.5210739325413942,0.4225557416094836,0.3453009242699707,0.35256833462394077,0.44534587974278805,0.5600343482157841,0.6578886763858067,0.7477412959092216,0.8010270017418071,0.8185298749497374,0.8115882740004481,0.8036633355109677,0.7840402748361535,0.757315128077261,0.7708828039315976,0.7959744022938895,0.815504538034022,0.8200631348603911,0.7756088648148691,0.7500291311847262,0.7784129141303207,0.8357344346620446,0.8014882186034686,0.677726327361297,0.5389415439537832,0.40197392247797303,0.2618693739540543,0.13153555107299653,0.06390319208489315,0.14243739378970632,0.28041619582470645,0.41923952667557485,0.5696739561016235,0.7100942760356634,0.7969588969770607,0.8761365448959042,0.8659457872913983,0.8479725310855661,0.8447352434612547,0.7848742249262952,0.7030313214104216,0.6128995269073987,0.4990605052761081,0.39661527434095944,0.3379970062183322,0.3767216195140515,0.4740336178701141,0.5848912360464804,0.6876813447949646,0.7661270878879227,0.8165757394802724,0.8240516166663912
0,1,2,3,4,5,6,7,8,9,10,11,12,13,14,15,16,17,18,19,20,21,22,23,24,25,26,27,28,29,30,31,32,33,34,35,36,37,38,39,40,41,42,43,44,45,46,47,48,49,50,51,52,53,54,55,56,57,58,59,60,61,62,63,64,65,66,67,68,69,70,71,72,73,74,75,76,77,78,79,80,81,82,83,84,85,86,87,88,89,90,91,92,93,94,95,96,97,98,99,100,101,102,103,104,105,106,107,108,109,110,111,112,113,114,115,116,117,118,119,120,121,122,123,124,125,126,127,128,129,130,131,132,133,134,135,136,137,138,139,140,141,142,143,144,145,146,147,148,149,150,151,152,153,154,155,156,157,158,159,160,161,162,163,164,165,166,167,168,169,170,171,172,173,174,175,176,177,178,179,180,181,182,183,184,185,186,187,188,189,190,191,192,193,194,195,196,197,198,199,200,201,202,203,204,205,206,207,208,209,210,211,212,213,214,215,216,217,218,219,220,221,222,223,224,225,226,227,228,229,230,231,232,233,234,235,236,237,238,239,240,241,242,243,244,245,246,247,248,249,250,251,252,253,254
0.266064026878563,0.25290097519997223,0.2558833610576783,0.26449855302091807,0.2997774200117038,0.35565787752330946,0.4312456461594465,0.499471747133994,0.5598473341445955,0.5470433965364054,0.4896733865568903,0.4191955490007815,0.3502879266281824,0.32743868011849475,0.30629880883386296,0.287490404060216,0.2406701961338058,0.19037781569279755,0.22710893900892026,0.32355823683467033,0.4217561307345994,0.5203194012513559,0.623879604859654,0.7238131538667654,0.8241517063968642,0.9210556622898975,1.0,0.9736616366608986,0.8806172553764045,0.7832500249867826,0.6810011764311339,0.5819651895771218,0.48138445062045543,0.3886534162884092,0.3704492958224006,0.3862746101486674,0.3939421946523134,0.3803748334074628,0.37978852394172735,0.40564623781006315,0.4132279828446883,0.41826758792789764,0.41201942448939377,0.39377579226867443,0.3977200358331241,0.39563424761521837,0.41719634980758835,0.4073526989934413,0.43970263477960714,0.4908160608026675,0.5527254315881747,0.5984753037129957,0.5718139139012517,0.5052278668191019,0.44609120935886404,0.38832110906037576,0.3546606643525796,0.33126150996728265,0.3003545267728689,0.24746103316564705,0.2317119968065553,0.3089615208023484,0.4027584071381156,0.501347256412199,0.6015175750261159,0.698692703910758,0.794756868872506,0.8929450920036421,0.9760872895454087,0.9439647770145285,0.8506372493474399,0.753336157119747,0.652451775821032,0.5532788914346822,0.44880815691855336,0.3629552704614416,0.34782729009103663,0.361300221921081,0.3464208454203179,0.3353380170882634,0.36128503614194685,0.3563852347344074,0.359973309952633,0.3600653252309747,0.3415302840851111,0.34026816411928085,0.3469299674435127,0.3490769338918347,0.3491557586148808,0.36641681506573276,0.3769589146713539,0.4121497030867225,0.4748327459595818,0.5441712517370876,0.5907188378156714,0.577264780024703,0.5131818940478179,0.4465942958641782,0.3892710027950961,0.3474187037136396,0.34980044707654834,0.31155894519110605,0.27867682510007175,0.21805520258323874,0.16892393870859124,0.22239638036357068,0.319106606949362,0.4177402104341814,0.51972677949116,0.6208085660135931,0.7203546138025283,0.8262523887500879,0.9269737800838285,0.9950286353440752,0.9498580351629999,0.8544479257392541,0.7572577738966872,0.6577742185925941,0.552833640618752,0.45281756936858475,0.3583058034632445,0.3436432009301802,0.35410766498922497,0.3386154810887452,0.34848219039241135,0.33258224779133005,0.3365324944028347,0.30363646980197156,0.2724914867235486,0.2464341336444993,0.17979800055381423,0.07424118636215549,0.0,0.006923075604334805,0.08826330273767002,0.19273326780771205,0.26088406597161384,0.28764394681077254,0.2758546120538061,0.2773735204415555,0.27719868784772084,0.2413023876028464,0.2891989717577319,0.38323125299431826,0.482229606761722,0.5876466460602825,0.6882114901466609,0.770296579367594,0.7241053620135469,0.6250192763429068,0.5217363717102965,0.4224507545125591,0.3155281168808113,0.21458676038069013,0.12827333081861925,0.09008912206967468,0.12878329910598119,0.19963194922271033,0.23841988794730273,0.27060374664896925,0.26583781022054387,0.31159662701963997,0.36427673225550494,0.42688835552530024,0.49393143423996655,0.5329834578914272,0.48642008355977673,0.4131642315331798,0.3571548578746637,0.31930327419097315,0.3051467891339148,0.2951778190619301,0.28534511609573476,0.2925710078767767,0.2758894683814286,0.28947636355505546,0.282948110969405,0.28545568928111686,0.2853523060257257,0.26964984576129947,0.27781939993375593,0.2837704982553184,0.2995390227948551,0.29266613149083254,0.26544966052282737,0.3085816126902321,0.40397777833802184,0.5053757509112771,0.6051713497207842,0.7026828502538707,0.7003685285642924,0.6010188740886329,0.4952718129944773,0.3989041425639561,0.3047096127704525,0.21312795803125129,0.1561985765151852,0.18358990242420337,0.23736001630641734,0.27490702315135174,0.301766953625068,0.32723614850457805,0.3778335076950743,0.43466709192974795,0.50529586812796,0.5322724648826811,0.4819102743211108,0.42287524277428234,0.3723223978731469,0.3363393555408365,0.35177710253127037,0.34164788972574733,0.339736500700599,0.3358065486987649,0.3456916800163641,0.36914192433156323,0.36632943301119925,0.35655369757235933,0.3569404572886432,0.33042484744017964,0.32611387328730457,0.33392052783845294,0.3281920673545331,0.3093060231011031,0.27893211452758804,0.3357519570845846,0.4330262859645342,0.5344002749689887,0.634818535829262,0.7303713137543184,0.7193507796268288,0.6201493771036133,0.520251161857892,0.4210101812257294,0.3196947838891928,0.2224965791914859,0.13752020233905515,0.11973739204152123,0.16794526359511952,0.22329353974376476,0.2352511966789561,0.25513464388352425,0.2563102825938519,0.3014598192291835,0.3806836197761121,0.4500243268987125,0.4797920912082816,0.42661556936517187,0.345166267852417,0.28929592553109584,0.2378059019858889,0.1968169097044723,0.18021157061655213,0.20025051244311642,0.20907940243254552
0,1,2,3,4,5,6,7,8,9,10,11,12,13,14,15,16,17,18,19,20,21,22,23,24,25,26,27,28,29,30,31,32,33,34,35,36,37,38,39,40,41,42,43,44,45,46,47,48,49,50,51,52,53,54,55,56,57,58,59,60,61,62,63,64,65,66,67,68,69,70,71,72,73,74,75,76,77,78,79,80,81,82,83,84,85,86,87,88,89,90,91,92,93,94,95,96,97,98,99,100,101,102,103,104,105,106,107,108,109,110,111,112,113,114,115,116,117,118,119,120,121,122,123,124,125,126,127,128,129,130,131,132,133,134,135,136,137,138,139,140,141,142,143,144,145,146,147,148,149,150,151,152,153,154,155,156,157,158,159,160,161,162,163,164,165,166,167,168,169,170,171,172,173,174,175,176,177,178,179,180,181,182,183,184,185,186,187,188,189,190,191,192,193,194,195,196,197,198,199,200,201,202,203,204,205,206,207,208,209,210,211,212,213,214,215,216,217,218,219,220,221,222,223,224,225,226,227,228,229,230,231,232,233,234,235,236,237,238,239,240,241,242,243,244,245,246,247,248,249,250,251,252,253,254
0.266064026878563,0.25290097519997223,0.2558833610576783,0.26449855302091807,0.2997774200117038,0.35565787752330946,0.4312456461594465,0.499471747133994,0.5598473341445955,0.5470433965364054,0.4896733865568903,0.4191955490007815,0.3502879266281824,0.32743868011849475,0.30629880883386296,0.287490404060216,0.2406701961338058,0.19037781569279755,0.22710893900892026,0.32355823683467033,0.4217561307345994,0.5203194012513559,0.623879604859654,0.7238131538667654,0.8241517063968642,0.9210556622898975,1.0,0.9736616366608986,0.8806172553764045,0.7832500249867826,0.6810011764311339,0.5819651895771218,0.48138445062045543,0.3886534162884092,0.3704492958224006,0.3862746101486674,0.3939421946523134,0.3803748334074628,0.37978852394172735,0.40564623781006315,0.4132279828446883,0.41826758792789764,0.41201942448939377,0.39377579226867443,0.3977200358331241,0.39563424761521837,0.41719634980758835,0.4073526989934413,0.43970263477960714,0.4908160608026675,0.5527254315881747,0.5984753037129957,0.5718139139012517,0.5052278668191019,0.44609120935886404,0.38832110906037576,0.3546606643525796,0.33126150996728265,0.3003545267728689,0.24746103316564705,0.2317119968065553,0.3089615208023484,0.4027584071381156,0.501347256412199,0.6015175750261159,0.698692703910758,0.794756868872506,0.8929450920036421,0.9760872895454087,0.9439647770145285,0.8506372493474399,0.753336157119747,0.652451775821032,0.5532788914346822,0.44880815691855336,0.3629552704614416,0.34782729009103663,0.361300221921081,0.3464208454203179,0.3353380170882634,0.36128503614194685,0.3563852347344074,0.359973309952633,0.3600653252309747,0.3415302840851111,0.34026816411928085,0.3469299674435127,0.3490769338918347,0.3491557586148808,0.36641681506573276,0.3769589146713539,0.4121497030867225,0.4748327459595818,0.5441712517370876,0.5907188378156714,0.577264780024703,0.5131818940478179,0.4465942958641782,0.3892710027950961,0.3474187037136396,0.34980044707654834,0.31155894519110605,0.27867682510007175,0.21805520258323874,0.16892393870859124,0.22239638036357068,0.319106606949362,0.4177402104341814,0.51972677949116,0.6208085660135931,0.7203546138025283,0.8262523887500879,0.9269737800838285,0.9950286353440752,0.9498580351629999,0.8544479257392541,0.7572577738966872,0.6577742185925941,0.552833640618752,0.45281756936858475,0.3583058034632445,0.3436432009301802,0.35410766498922497,0.3386154810887452,0.34848219039241135,0.33258224779133005,0.3365324944028347,0.30363646980197156,0.2724914867235486,0.2464341336444993,0.17979800055381423,0.07424118636215549,0.0,0.006923075604334805,0.08826330273767002,0.19273326780771205,0.26088406597161384,0.28764394681077254,0.2758546120538061,0.2773735204415555,0.27719868784772084,0.2413023876028464,0.2891989717577319,0.38323125299431826,0.482229606761722,0.5876466460602825,0.6882114901466609,0.770296579367594,0.7241053620135469,0.6250192763429068,0.5217363717102965,0.4224507545125591,0.3155281168808113,0.21458676038069013,0.12827333081861925,0.09008912206967468,0.12878329910598119,0.19963194922271033,0.23841988794730273,0.27060374664896925,0.26583781022054387,0.31159662701963997,0.36427673225550494,0.42688835552530024,0.49393143423996655,0.5329834578914272,0.48642008355977673,0.4131642315331798,0.3571548578746637,0.31930327419097315,0.3051467891339148,0.2951778190619301,0.28534511609573476,0.2925710078767767,0.2758894683814286,0.28947636355505546,0.282948110969405,0.28545568928111686,0.2853523060257257,0.26964984576129947,0.27781939993375593,0.2837704982553184,0.2995390227948551,0.29266613149083254,0.26544966052282737,0.3085816126902321,0.40397777833802184,0.5053757509112771,0.6051713497207842,0.7026828502538707,0.7003685285642924,0.6010188740886329,0.4952718129944773,0.3989041425639561,0.3047096127704525,0.21312795803125129,0.1561985765151852,0.18358990242420337,0.23736001630641734,0.27490702315135174,0.301766953625068,0.32723614850457805,0.3778335076950743,0.43466709192974795,0.50529586812796,0.5322724648826811,0.4819102743211108,0.42287524277428234,0.3723223978731469,0.3363393555408365,0.35177710253127037,0.34164788972574733,0.339736500700599,0.3358065486987649,0.3456916800163641,0.36914192433156323,0.36632943301119925,0.35655369757235933,0.3569404572886432,0.33042484744017964,0.32611387328730457,0.33392052783845294,0.3281920673545331,0.3093060231011031,0.27893211452758804,0.3357519570845846,0.4330262859645342,0.5344002749689887,0.634818535829262,0.7303713137543184,0.7193507796268288,0.6201493771036133,0.520251161857892,0.4210101812257294,0.3196947838891928,0.2224965791914859,0.13752020233905515,0.11973739204152123,0.16794526359511952,0.22329353974376476,0.2352511966789561,0.25513464388352425,0.2563102825938519,0.3014598192291835,0.3806836197761121,0.4500243268987125,0.4797920912082816,0.42661556936517187,0.345166267852417,0.28929592553109584,0.2378059019858889,0.1968169097044723,0.18021157061655213,0.20025051244311642,0.20907940243254552
0,1,2,3,4,5,6,7,8,9,10,11,12,13,14,15,16,17,18,19,20,21,22,23,24,25,26,27,28,29,30,31,32,33,34,35,36,37,38,39,40,41,42,43,44,45,46,47,48,49,50,51,52,53,54,55,56,57,58,59,60,61,62,63,64,65,66,67,68,69,70,71,72,73,74,75,76,77,78,79,80,81,82,83,84,85,86,87,88,89,90,91,92,93,94,95,96,97,98,99,100,101,102,103,104,105,106,107,108,109,110,111,112,113,114,115,116,117,118,119,120,121,122,123,124,125,126,127,128,129,130,131,132,133,134,135,136,137,138,139,140,141,142,143,144,145,146,147,148,149,150,151,152,153,154,155,156,157,158,159,160,161,162,163,164,165,166,167,168,169,170,171,172,173,174,175,176,177,178,179,180,181,182,183,184,185,186,187,188,189,190,191,192,193,194,195,196,197,198,199,200,201,202,203,204,205,206,207,208,209,210,211,212,213,214,215,216,217,218,219,220,221,222,223,224,225,226,227,228,229,230,231,232,233,234,235,236,237,238,239,240,241,242,243,244,245,246,247,248,249,250,251,252,253,254
0.266064026878563,0.25290097519997223,0.2558833610576783,0.26449855302091807,0.2997774200117038,0.35565787752330946,0.4312456461594465,0.499471747133994,0.5598473341445955,0.5470433965364054,0.4896733865568903,0.4191955490007815,0.3502879266281824,0.32743868011849475,0.30629880883386296,0.287490404060216,0.2406701961338058,0.19037781569279755,0.22710893900892026,0.32355823683467033,0.4217561307345994,0.5203194012513559,0.623879604859654,0.7238131538667654,0.8241517063968642,0.9210556622898975,1.0,0.9736616366608986,0.8806172553764045,0.7832500249867826,0.6810011764311339,0.5819651895771218,0.48138445062045543,0.3886534162884092,0.3704492958224006,0.3862746101486674,0.3939421946523134,0.3803748334074628,0.37978852394172735,0.40564623781006315,0.4132279828446883,0.41826758792789764,0.41201942448939377,0.39377579226867443,0.3977200358331241,0.39563424761521837,0.41719634980758835,0.4073526989934413,0.43970263477960714,0.4908160608026675,0.5527254315881747,0.5984753037129957,0.5718139139012517,0.5052278668191019,0.44609120935886404,0.38832110906037576,0.3546606643525796,0.33126150996728265,0.3003545267728689,0.24746103316564705,0.2317119968065553,0.3089615208023484,0.4027584071381156,0.501347256412199,0.6015175750261159,0.698692703910758,0.794756868872506,0.8929450920036421,0.9760872895454087,0.9439647770145285,0.8506372493474399,0.753336157119747,0.652451775821032,0.5532788914346822,0.44880815691855336,0.3629552704614416,0.34782729009103663,0.361300221921081,0.3464208454203179,0.3353380170882634,0.36128503614194685,0.3563852347344074,0.359973309952633,0.3600653252309747,0.3415302840851111,0.34026816411928085,0.3469299674435127,0.3490769338918347,0.3491557586148808,0.36641681506573276,0.3769589146713539,0.4121497030867225,0.4748327459595818,0.5441712517370876,0.5907188378156714,0.577264780024703,0.5131818940478179,0.4465942958641782,0.3892710027950961,0.3474187037136396,0.34980044707654834,0.31155894519110605,0.27867682510007175,0.21805520258323874,0.16892393870859124,0.22239638036357068,0.319106606949362,0.4177402104341814,0.51972677949116,0.6208085660135931,0.7203546138025283,0.8262523887500879,0.9269737800838285,0.9950286353440752,0.9498580351629999,0.8544479257392541,0.7572577738966872,0.6577742185925941,0.552833640618752,0.45281756936858475,0.3583058034632445,0.3436432009301802,0.35410766498922497,0.3386154810887452,0.34848219039241135,0.33258224779133005,0.3365324944028347,0.30363646980197156,0.2724914867235486,0.2464341336444993,0.17979800055381423,0.07424118636215549,0.0,0.006923075604334805,0.08826330273767002,0.19273326780771205,0.26088406597161384,0.28764394681077254,0.2758546120538061,0.2773735204415555,0.27719868784772084,0.2413023876028464,0.2891989717577319,0.38323125299431826,0.482229606761722,0.5876466460602825,0.6882114901466609,0.770296579367594,0.7241053620135469,0.6250192763429068,0.5217363717102965,0.4224507545125591,0.3155281168808113,0.21458676038069013,0.12827333081861925,0.09008912206967468,0.12878329910598119,0.19963194922271033,0.23841988794730273,0.27060374664896925,0.26583781022054387,0.31159662701963997,0.36427673225550494,0.42688835552530024,0.49393143423996655,0.5329834578914272,0.48642008355977673,0.4131642315331798,0.3571548578746637,0.31930327419097315,0.3051467891339148,0.2951778190619301,0.28534511609573476,0.2925710078767767,0.2758894683814286,0.28947636355505546,0.282948110969405,0.28545568928111686,0.2853523060257257,0.26964984576129947,0.27781939993375593,0.2837704982553184,0.2995390227948551,0.29266613149083254,0.26544966052282737,0.3085816126902321,0.40397777833802184,0.5053757509112771,0.6051713497207842,0.7026828502538707,0.7003685285642924,0.6010188740886329,0.4952718129944773,0.3989041425639561,0.3047096127704525,0.21312795803125129,0.1561985765151852,0.18358990242420337,0.23736001630641734,0.27490702315135174,0.301766953625068,0.32723614850457805,0.3778335076950743,0.43466709192974795,0.50529586812796,0.5322724648826811,0.4819102743211108,0.42287524277428234,0.3723223978731469,0.3363393555408365,0.35177710253127037,0.34164788972574733,0.339736500700599,0.3358065486987649,0.3456916800163641,0.36914192433156323,0.36632943301119925,0.35655369757235933,0.3569404572886432,0.33042484744017964,0.32611387328730457,0.33392052783845294,0.3281920673545331,0.3093060231011031,0.27893211452758804,0.3357519570845846,0.4330262859645342,0.5344002749689887,0.634818535829262,0.7303713137543184,0.7193507796268288,0.6201493771036133,0.520251161857892,0.4210101812257294,0.3196947838891928,0.2224965791914859,0.13752020233905515,0.11973739204152123,0.16794526359511952,0.22329353974376476,0.2352511966789561,0.25513464388352425,0.2563102825938519,0.3014598192291835,0.3806836197761121,0.4500243268987125,0.4797920912082816,0.42661556936517187,0.345166267852417,0.28929592553109584,0.2378059019858889,0.1968169097044723,0.18021157061655213,0.20025051244311642,0.20907940243254552
0,1,2,3,4,5,6,7,8,9,10,11,12,13,14,15,16,17,18,19,20,21,22,23,24,25,26,27,28,29,30,31,32,33,34,35,36,37,38,39,40,41,42,43,44,45,46,47,48,49,50,51,52,53,54,55,56,57,58,59,60,61,62,63,64,65,66,67,68,69,70,71,72,73,74,75,76,77,78,79,80,81,82,83,84,85,86,87,88,89,90,91,92,93,94,95,96,97,98,99,100,101,102,103,104,105,106,107,108,109,110,111,112,113,114,115,116,117,118,119,120,121,122,123,124,125,126,127,128,129,130,131,132,133,134,135,136,137,138,139,140,141,142,143,144,145,146,147,148,149,150,151,152,153,154,155,156,157,158,159,160,161,162,163,164,165,166,167,168,169,170,171,172,173,174,175,176,177,178,179,180,181,182,183,184,185,186,187,188,189,190,191,192,193,194,195,196,197,198,199,200,201,202,203,204,205,206,207,208,209,210,211,212,213,214,215,216,217,218,219,220,221,222,223,224,225,226,227,228,229,230,231,232,233,234,235,236,237,238,239,240,241,242,243,244,245,246,247,248,249,250,251,252,253,254
0.7020736174262212,0.6562646917013049,0.6229550827229597,0.5703370162669725,0.5493437849531975,0.6036827365797746,0.6206433049873046,0.6157147911965466,0.6313531315821588,0.6154264786245691,0.6071239193420133,0.5906430293667335,0.5812980798663205,0.5804258940291986,0.6116489187996357,0.624772919942933,0.629887898729574,0.6549006231131282,0.6703585572378468,0.6506053586199152,0.6492077444324393,0.7154273834945752,0.8057088783572399,0.8868151829251327,0.9541713614374703,0.9999999999999996,0.9983632229891781,0.9604976253091064,0.907555509214728,0.8610843057235829,0.8120059929968648,0.7772484644517834,0.7342041393916401,0.7323154499071101,0.7692007678234538,0.7062451810230228,0.6361417239075355,0.6872204565346496,0.6980492261756868,0.6704629662420722,0.6801809699360493,0.6551284872276422,0.6100906195277358,0.5622201024050315,0.5400807501822515,0.5831708967963132,0.6298150709650847,0.632736271133933,0.6262925363675733,0.6063852754869612,0.5856879629588572,0.5679512703460818,0.578402710213799,0.5973129919015041,0.606227788385088,0.5886167701354377,0.5976954704596955,0.5862557242285331,0.5650477643997083,0.6134136884696049,0.6967864749366766,0.7796756499436808,0.8645742253168138,0.9346878214754928,0.9790414059840669,0.971752809544951,0.9322823088708803,0.8894866112846267,0.8637822899385612,0.8147577819025495,0.7619405349569015,0.7234310027415414,0.6879627743226018,0.7408368752029424,0.7131917814297846,0.6149662623623606,0.616751033920059,0.6873885670167748,0.7126715657092917,0.6689738407938015,0.6750904174641881,0.6670753900927422,0.6134718470137144,0.5589220337864167,0.535571541470707,0.5654843524522666,0.6049612887288061,0.6055836837344235,0.5806971592284653,0.5589131448620974,0.5599585281492776,0.5803811420536689,0.6024081410465016,0.6077458611891591,0.6052959176215018,0.5986997963689729,0.5878504446916355,0.5641461914704862,0.6067892660727741,0.6939116166504049,0.7881851736439063,0.8695683121147435,0.9370135624758658,0.9854569350338598,0.9901034808128863,0.9584160042019048,0.906308988359338,0.8574583376059839,0.8234190095641796,0.7875043058085196,0.7450524956188009,0.7053085471205587,0.7431881560758655,0.6927129347682457,0.6470577600335257,0.7158110361916994,0.7463834213988725,0.7286196533408265,0.7254817235180862,0.7045941757595506,0.6510838875994156,0.609884315044646,0.6316469509255884,0.6373653506448194,0.6154421745937575,0.5403372500665271,0.45133857302913327,0.3517051454282596,0.21588134274864057,0.08165786965102484,0.005467190131165367,0.0,0.04689051020706225,0.17304043367823851,0.29517895636335956,0.40054482776159706,0.5254211960438675,0.5855611763691377,0.6460139604008659,0.703015492610453,0.7361730505640334,0.7781736950643281,0.8136206436403888,0.868679384628765,0.9022187589347426,0.8886568939491659,0.8298341497323967,0.7517808664553169,0.6694210422059563,0.5734481437794519,0.49166365220690755,0.4756935095248034,0.5087149006069489,0.5226446681640433,0.5278223193827265,0.5280519484347832,0.5146528068009162,0.49517981351072926,0.4753589271605416,0.4734989324329053,0.4915771547099901,0.5187190276877618,0.5295507394181107,0.4855128388804424,0.44006118693628826,0.44185134583708807,0.4855757165096448,0.5278780162282621,0.5828865766556581,0.5812893787369622,0.5889753930495174,0.5729075075118435,0.47796109436979295,0.36618814299162494,0.29107678840889006,0.3361406303728858,0.4541054609252755,0.546313346539351,0.5681881973634515,0.6339573439201218,0.6650022173324648,0.7066795368606162,0.7524410525354637,0.8008147865350899,0.836344597441713,0.8834959290461284,0.9070415758432566,0.8686669665304119,0.785273728184372,0.7022603424622482,0.6211322773133516,0.5401769209369403,0.483133368260126,0.48198294881226555,0.5168574270258959,0.5065557792280369,0.5164638979532845,0.5081667704267621,0.5062065137123892,0.48770698078610053,0.46388428011859695,0.5012977661265925,0.526447740062602,0.5326664812961881,0.5543145007663521,0.5617592882883229,0.548919800629807,0.5020202012724861,0.44521895832924807,0.4358164691804096,0.4857262745114874,0.5394381204370098,0.5782389468266129,0.5932638083544917,0.5783460413429595,0.5832518218338856,0.510095960231419,0.4013960711708062,0.3340679439283947,0.3914011857209414,0.5161663319765784,0.5824091809683263,0.6373929393222739,0.6780740149887214,0.7245855847733291,0.7564967963657341,0.8086253212915708,0.8590294222036907,0.9037667436435117,0.9140223147334638,0.8589729172769958,0.7816118500969513,0.6956339789479595,0.6205905572263588,0.5612922628956585,0.5589101433481791,0.588370325529636,0.5803180818037581,0.554572373842324,0.5348376140507383,0.5312403799584593,0.5028275041122634,0.49783119176299495,0.5085389998232199,0.5388686494157029,0.5346984681342248,0.547257247833064,0.540304279460575,0.520255806101479,0.4779752595942752,0.4493588398529269,0.4760254173128109,0.5337586642029657,0.5708492558937475,0.6274860736208816
0,1,2,3,4,5,6,7,8,9,10,11,12,13,14,15,16,17,18,19,20,21,22,23,24,25,26,27,28,29,30,31,32,33,34,35,36,37,38,39,40,41,42,43,44,45,46,47,48,49,50,51,52,53,54,55,56,57,58,59,60,61,62,63,64,65,66,67,68,69,70,71,72,73,74,75,76,77,78,79,80,81,82,83,84,85,86,87,88,89,90,91,92,93,94,95,96,97,98,99,100,101,102,103,104,105,106,107,108,109,110,111,112,113,114,115,116,117,118,119,120,121,122,123,124,125,126,127,128,129,130,131,132,133,134,135,136,137,138,139,140,141,142,143,144,145,146,147,148,149,150,151,152,153,154,155,156,157,158,159,160,161,162,163,164,165,166,167,168,169,170,171,172,173,174,175,176,177,178,179,180,181,182,183,184,185,186,187,188,189,190,191,192,193,194,195,196,197,198,199,200,201,202,203,204,205,206,207,208,209,210,211,212,213,214,215,216,217,218,219,220,221,222,223,224,225,226,227,228,229,230,231,232,233,234,235,236,237,238,239,240,241,242,243,244,245,246,247,248,249,250,251,252,253,254
0.7020736174262212,0.6562646917013049,0.6229550827229597,0.5703370162669725,0.5493437849531975,0.6036827365797746,0.6206433049873046,0.6157147911965466,0.6313531315821588,0.6154264786245691,0.6071239193420133,0.5906430293667335,0.5812980798663205,0.5804258940291986,0.6116489187996357,0.624772919942933,0.629887898729574,0.6549006231131282,0.6703585572378468,0.6506053586199152,0.6492077444324393,0.7154273834945752,0.8057088783572399,0.8868151829251327,0.9541713614374703,0.9999999999999996,0.9983632229891781,0.9604976253091064,0.907555509214728,0.8610843057235829,0.8120059929968648,0.7772484644517834,0.7342041393916401,0.7323154499071101,0.7692007678234538,0.7062451810230228,0.6361417239075355,0.6872204565346496,0.6980492261756868,0.6704629662420722,0.6801809699360493,0.6551284872276422,0.6100906195277358,0.5622201024050315,0.5400807501822515,0.5831708967963132,0.6298150709650847,0.632736271133933,0.6262925363675733,0.6063852754869612,0.5856879629588572,0.5679512703460818,0.578402710213799,0.5973129919015041,0.606227788385088,0.5886167701354377,0.5976954704596955,0.5862557242285331,0.5650477643997083,0.6134136884696049,0.6967864749366766,0.7796756499436808,0.8645742253168138,0.9346878214754928,0.9790414059840669,0.971752809544951,0.9322823088708803,0.8894866112846267,0.8637822899385612,0.8147577819025495,0.7619405349569015,0.7234310027415414,0.6879627743226018,0.7408368752029424,0.7131917814297846,0.6149662623623606,0.616751033920059,0.6873885670167748,0.7126715657092917,0.6689738407938015,0.6750904174641881,0.6670753900927422,0.6134718470137144,0.5589220337864167,0.535571541470707,0.5654843524522666,0.6049612887288061,0.6055836837344235,0.5806971592284653,0.5589131448620974,0.5599585281492776,0.5803811420536689,0.6024081410465016,0.6077458611891591,0.6052959176215018,0.5986997963689729,0.5878504446916355,0.5641461914704862,0.6067892660727741,0.6939116166504049,0.7881851736439063,0.8695683121147435,0.9370135624758658,0.9854569350338598,0.9901034808128863,0.9584160042019048,0.906308988359338,0.8574583376059839,0.8234190095641796,0.7875043058085196,0.7450524956188009,0.7053085471205587,0.7431881560758655,0.6927129347682457,0.6470577600335257,0.7158110361916994,0.7463834213988725,0.7286196533408265,0.7254817235180862,0.7045941757595506,0.6510838875994156,0.609884315044646,0.6316469509255884,0.6373653506448194,0.6154421745937575,0.5403372500665271,0.45133857302913327,0.3517051454282596,0.21588134274864057,0.08165786965102484,0.005467190131165367,0.0,0.04689051020706225,0.17304043367823851,0.29517895636335956,0.40054482776159706,0.5254211960438675,0.5855611763691377,0.6460139604008659,0.703015492610453,0.7361730505640334,0.7781736950643281,0.8136206436403888,0.868679384628765,0.9022187589347426,0.8886568939491659,0.8298341497323967,0.7517808664553169,0.6694210422059563,0.5734481437794519,0.49166365220690755,0.4756935095248034,0.5087149006069489,0.5226446681640433,0.5278223193827265,0.5280519484347832,0.5146528068009162,0.49517981351072926,0.4753589271605416,0.4734989324329053,0.4915771547099901,0.5187190276877618,0.5295507394181107,0.4855128388804424,0.44006118693628826,0.44185134583708807,0.4855757165096448,0.5278780162282621,0.5828865766556581,0.5812893787369622,0.5889753930495174,0.5729075075118435,0.47796109436979295,0.36618814299162494,0.29107678840889006,0.3361406303728858,0.4541054609252755,0.546313346539351,0.5681881973634515,0.6339573439201218,0.6650022173324648,0.7066795368606162,0.7524410525354637,0.8008147865350899,0.836344597441713,0.8834959290461284,0.9070415758432566,0.8686669665304119,0.785273728184372,0.7022603424622482,0.6211322773133516,0.5401769209369403,0.483133368260126,0.48198294881226555,0.5168574270258959,0.5065557792280369,0.5164638979532845,0.5081667704267621,0.5062065137123892,0.48770698078610053,0.46388428011859695,0.5012977661265925,0.526447740062602,0.5326664812961881,0.5543145007663521,0.5617592882883229,0.548919800629807,0.5020202012724861,0.44521895832924807,0.4358164691804096,0.4857262745114874,0.5394381204370098,0.5782389468266129,0.5932638083544917,0.5783460413429595,0.5832518218338856,0.510095960231419,0.4013960711708062,0.3340679439283947,0.3914011857209414,0.5161663319765784,0.5824091809683263,0.6373929393222739,0.6780740149887214,0.7245855847733291,0.7564967963657341,0.8086253212915708,0.8590294222036907,0.9037667436435117,0.9140223147334638,0.8589729172769958,0.7816118500969513,0.6956339789479595,0.6205905572263588,0.5612922628956585,0.5589101433481791,0.588370325529636,0.5803180818037581,0.554572373842324,0.5348376140507383,0.5312403799584593,0.5028275041122634,0.49783119176299495,0.5085389998232199,0.5388686494157029,0.5346984681342248,0.547257247833064,0.540304279460575,0.520255806101479,0.4779752595942752,0.4493588398529269,0.4760254173128109,0.5337586642029657,0.5708492558937475,0.6274860736208816
0,1,2,3,4,5,6,7,8,9,10,11,12,13,14,15,16,17,18,19,20,21,22,23,24,25,26,27,28,29,30,31,32,33,34,35,36,37,38,39,40,41,42,43,44,45,46,47,48,49,50,51,52,53,54,55,56,57,58,59,60,61,62,63,64,65,66,67,68,69,70,71,72,73,74,75,76,77,78,79,80,81,82,83,84,85,86,87,88,89,90,91,92,93,94,95,96,97,98,99,100,101,102,103,104,105,106,107,108,109,110,111,112,113,114,115,116,117,118,119,120,121,122,123,124,125,126,127,128,129,130,131,132,133,134,135,136,137,138,139,140,141,142,143,144,145,146,147,148,149,150,151,152,153,154,155,156,157,158,159,160,161,162,163,164,165,166,167,168,169,170,171,172,173,174,175,176,177,178,179,180,181,182,183,184,185,186,187,188,189,190,191,192,193,194,195,196,197,198,199,200,201,202,203,204,205,206,207,208,209,210,211,212,213,214,215,216,217,218,219,220,221,222,223,224,225,226,227,228,229,230,231,232,233,234,235,236,237,238,239,240,241,242,243,244,245,246,247,248,249,250,251,252,253,254
0.6254427352422449,0.5795026437690978,0.5144232911975664,0.4404718127401104,0.36423412562311963,0.30750111650307543,0.34241793301508405,0.40313229992418753,0.4615899828493344,0.5251340550929955,0.5856333148787969,0.6243549943712443,0.652136194128647,0.6709469880731467,0.6723500500241131,0.6779523078141692,0.6852964365639256,0.677425316050877,0.6782066030528804,0.6946373524459379,0.7890466825301674,0.8894218465168624,0.9723203618547416,1.0,0.9372554918864111,0.8313408535050586,0.7263473329347025,0.6899857211166416,0.6949951355122854,0.6970889041709247,0.7058443059201429,0.6762026759143134,0.6516731403907552,0.6391033550810685,0.6655779776494577,0.6722869722967575,0.6723267441320737,0.6723257057475212,0.6708874057291334,0.6540238517461914,0.6496233637049316,0.6501673753075967,0.664692337821867,0.675204441037526,0.692662965401992,0.6933184937361077,0.6761413184950626,0.672725216158685,0.6817967966210334,0.6735212862191631,0.6740006880635017,0.690885838674181,0.6827653328450807,0.6486484989101422,0.5995219230615674,0.5299014170046354,0.4437450332787458,0.37023485250041954,0.3425283111590458,0.39030748308964913,0.45874595622645,0.5211902922571672,0.5673315744438843,0.5929014833593897,0.6104977818614152,0.6263850856299902,0.6267163141464835,0.616391361472914,0.6166657744896535,0.6064952204394096,0.6044888529682235,0.62182707869581,0.7025608410189839,0.806525050085444,0.8942678760657428,0.9332765082987855,0.8828224428701041,0.7815754209444807,0.6700965463071293,0.6268349869172187,0.6480495030981293,0.6650855743763877,0.6573600587972024,0.6532680434402938,0.6204802709653734,0.582268113741454,0.5800655223309445,0.6138858390546136,0.6376279391972601,0.6324349786164416,0.6361029120888868,0.6278464780848063,0.6393765922367396,0.6323907559932804,0.6549738838540247,0.6638613636810864,0.6617548855930857,0.6622482330571127,0.6560794044894145,0.6546779007616546,0.6629401163705135,0.6751297830492167,0.6704600329361647,0.6622926655623744,0.6723956377620244,0.6842926653823049,0.7047959221431999,0.7275810494536126,0.7141332202779567,0.6723445763335851,0.6160350388192439,0.5448769067411527,0.4714011117515313,0.3948031371421452,0.3553509727281825,0.41012628924967887,0.4211519110870898,0.4231841725404868,0.4756537182253209,0.5326329086721127,0.5730395885663264,0.5953058600744616,0.5574748626071382,0.5086854530617568,0.4716288011443588,0.41162965130471374,0.3142864241167391,0.1907438992590773,0.07055741731959664,0.00516121717878848,0.0,0.04124887592199267,0.15248368526988765,0.2699635929362576,0.28823958550318274,0.21677494600899783,0.09727549016087744,0.015801719026603767,0.005715896919975982,0.037285161071258344,0.144846556651542,0.23411699660270768,0.2896581076435125,0.36630256415852136,0.44078865550022517,0.5172191032870272,0.5908224119219962,0.632319033365206,0.6328566097951724,0.617830059755577,0.6028141997553251,0.5923490883751654,0.5833183483173441,0.593581574067577,0.5848032658581981,0.5784998254650144,0.5734491505951516,0.5848083636364505,0.5797078798801043,0.5813132064644129,0.5745237076920362,0.5506595952102136,0.5496589084687371,0.5496587169014862,0.5496586010266609,0.5487428091434672,0.5244063683659519,0.5009395876295057,0.49501929737000383,0.5345443738969653,0.5555878256599751,0.5715057322238559,0.5719813672715022,0.5475354426174501,0.47780617567820194,0.48831997257419957,0.5835573476069489,0.6936914395786125,0.7920541158275882,0.7555685702532546,0.6517768599753411,0.5523597954020341,0.5140850133958668,0.5263535829884569,0.5172202079942165,0.5158093351002653,0.5193258866581361,0.5435419998322386,0.5494431158224837,0.5382919713895329,0.5201221909731264,0.4808428518169876,0.42786581385314815,0.3625947104315195,0.3045832145238232,0.2634645478400741,0.26850979976997813,0.33526675709856146,0.40871861361140427,0.4868415671244368,0.5571844651223188,0.5928130672765595,0.6071234732888295,0.6008847645721325,0.5976107142580682,0.6024100946437874,0.5952152989544297,0.595750027809792,0.6108760836855875,0.6127980579078547,0.5960700851834955,0.5826694345109211,0.5631589520338274,0.571037838246462,0.5744756947294665,0.5917865393890178,0.5931429212687864,0.5633101720171947,0.5781833353767105,0.5947422767731396,0.5862230657589804,0.5622614572022377,0.5561762081737953,0.5773172695477946,0.6110047071585196,0.617783937168062,0.6163442666503935,0.5725613206399296,0.513151050431667,0.562456946625256,0.6739670727727369,0.7842104647826496,0.8701505618241301,0.8072799000471491,0.702321903255569,0.6008823059313464,0.5562448683330943,0.5726262756255434,0.5908932782178224,0.5950805567960535,0.5950776138936513,0.5905993749424159,0.5737298553903902,0.5627434456175955,0.5219993675335681,0.46746018137612566,0.40149692777347434,0.3377657902039273,0.2828880444595159,0.23845672374875138,0.253390129546045,0.31697532790073923,0.3921722419173199,0.47297811612360796,0.5263983873399556
0,1,2,3,4,5,6,7,8,9,10,11,12,13,14,15,16,17,18,19,20,21,22,23,24,25,26,27,28,29,30,31,32,33,34,35,36,37,38,39,40,41,42,43,44,45,46,47,48,49,50,51,52,53,54,55,56,57,58,59,60,61,62,63,64,65,66,67,68,69,70,71,72,73,74,75,76,77,78,79,80,81,82,83,84,85,86,87,88,89,90,91,92,93,94,95,96,97,98,99,100,101,102,103,104,105,106,107,108,109,110,111,112,113,114,115,116,117,118,119,120,121,122,123,124,125,126,127,128,129,130,131,132,133,134,135,136,137,138,139,140,141,142,143,144,145,146,147,148,149,150,151,152,153,154,155,156,157,158,159,160,161,162,163,164,165,166,167,168,169,170,171,172,173,174,175,176,177,178,179,180,181,182,183,184,185,186,187,188,189,190,191,192,193,194,195,196,197,198,199,200,201,202,203,204,205,206,207,208,209,210,211,212,213,214,215,216,217,218,219,220,221,222,223,224,225,226,227,228,229,230,231,232,233,234,235,236,237,238,239,240,241,242,243,244,245,246,247,248,249,250,251,252,253,254
