0,1,2,3,4,5,6,7,8,9,10,11,12,13,14,15,16,17,18,19,20,21,22,23,24,25,26,27,28,29,30,31,32,33,34,35,36,37,38,39,40,41,42,43,44,45,46,47,48,49,50,51,52,53,54,55,56,57,58,59,60,61,62,63,64,65,66,67,68,69,70,71,72,73,74,75,76,77,78,79,80,81,82,83,84,85,86,87,88,89,90,91,92,93,94,95,96,97,98,99,100,101,102,103,104,105,106,107,108,109,110,111,112,113,114,115,116,117,118,119,120,121,122,123,124,125,126,127,128,129,130,131,132,133,134,135,136,137,138,139,140,141,142,143,144,145,146,147,148,149,150,151,152,153,154,155,156,157,158,159,160,161,162,163,164,165,166,167,168,169,170,171,172,173,174,175,176,177,178,179,180,181,182,183,184,185,186,187,188,189,190,191,192,193,194,195,196,197,198,199,200,201,202,203,204,205,206,207,208,209,210,211,212,213,214,215,216,217,218,219,220,221,222,223,224,225,226,227,228,229,230,231,232,233,234,235,236,237,238,239,240,241,242,243,244,245,246,247,248,249,250,251,252,253,254
0.9271747961758348,0.9248223270297558,0.8836536693793826,0.8048363427410503,0.7130029397356177,0.6156456013259162,0.5167950678142434,0.41202263706152187,0.31900521314196695,0.31141131656106413,0.40322406678759104,0.501612743372917,0.6005039732012944,0.6977938891041073,0.7902777093030735,0.8799483541753308,0.9194410533798327,0.9044391088302948,0.8681598622105093,0.8340737784327514,0.8699758425344604,0.9047772471898388,0.9058484089456054,0.9104564883702995,0.924474080556861,0.9605860680881915,1.0000000000000002,0.9939567573881642,0.9471873323448252,0.9181721232621822,0.9261837718697528,0.9354088417953104,0.9230931555880211,0.8586470359975504,0.7669823147010955,0.6718636267257851,0.5714290458420141,0.47629180116284275,0.39035941745980374,0.3424869714308847,0.4197896781113841,0.5162356804423556,0.6149517476157691,0.7113518178629792,0.8062103047695433,0.8924221203407321,0.9276589512766862,0.9101904973553026,0.8753022301570133,0.8335956468465768,0.8674628057174172,0.9030611329115172,0.910958864382833,0.9062403509918562,0.9114477863125441,0.9410455751859412,0.9809553318910569,0.9819484806630372,0.9448392022630452,0.9182519673939498,0.9289781379833821,0.9313979099288348,0.9215988101670425,0.8768835931847179,0.7938869921625857,0.6989863269065411,0.6022000922164104,0.5005652666720208,0.4051628470612121,0.411638399822275,0.5068467139294672,0.6042626374794327,0.701862976884005,0.7956740603163561,0.8804027138534052,0.9150659663773235,0.9021665377787056,0.870264923354344,0.8220606256804783,0.8341334877886661,0.869952861775132,0.8823346354991435,0.873403858649785,0.8690907010842943,0.8937196919814763,0.9398062797250264,0.969844141957126,0.9492946851407298,0.9138762285916064,0.9104178586486846,0.9197240420520127,0.9195460136016622,0.8764686918279019,0.7955560051858044,0.7024900692439624,0.6038400208764427,0.5062966578239243,0.40956614837385996,0.4120368174714282,0.5022876145066539,0.6013927315979826,0.6974960506632408,0.7909223605246674,0.8798859905012237,0.9156854752571582,0.8956541743707833,0.8585174103168438,0.8161598845992237,0.843069539277191,0.8776470906733069,0.8818885852433571,0.875157787215249,0.8771046728714971,0.9023607198437655,0.9452123926346128,0.952601812391128,0.910971246324866,0.8877099688128143,0.9163608696201584,0.8910805114135851,0.8544789640939217,0.8439221479801235,0.8435717072045541,0.8408820915439399,0.8111441100854904,0.7678832269460545,0.7801272121689589,0.8356102219270178,0.868211091217512,0.8453096991528029,0.7591853084457791,0.6649654787840236,0.5626061124179109,0.45797756251842014,0.36134587177995003,0.26064627720691824,0.1649704296551373,0.0712855291380623,0.023140253066132654,0.08423080657988025,0.1842380977410234,0.28327355612197147,0.3829413243697317,0.4875691848579655,0.5843765978262516,0.6841568816739914,0.7800020309686972,0.863058773263728,0.8896209529774788,0.8791617813011319,0.8702811012099494,0.8887158144683458,0.9272404036900286,0.9181706106608758,0.8684329099090127,0.8405156806061649,0.8359422410212012,0.8431173375705872,0.8350070184463421,0.7991210941729758,0.7650928127706405,0.7946868239231604,0.8495455868705377,0.8709709956647138,0.8255455333103001,0.7337827129971539,0.6295099746818971,0.5302033854206294,0.43217790800058364,0.33611165610516336,0.23655568119874082,0.13965845917201714,0.04919930262946193,0.031053585787071958,0.11095941040895685,0.2105254894134998,0.3093907330912262,0.4091819020999965,0.5145470230011304,0.6199950631248521,0.7216091331381194,0.8112718565110655,0.8757020839715415,0.8930095259517896,0.8868896278333678,0.8867503139153927,0.916097033330842,0.9443579155074244,0.9146151530751949,0.8820635746844758,0.8693829393522028,0.8719518364869232,0.8718190560780712,0.8527241808597659,0.8023967686367519,0.7734232930843974,0.8147220580699177,0.8680548420557932,0.8841445311332412,0.829692928386925,0.7333149100384508,0.6315304631440883,0.5349448101123491,0.43797203005225294,0.3373427897143797,0.24052176852400353,0.13993587107078742,0.04710145055398374,0.0,0.0601668588192128,0.15915852154285104,0.2556881934107422,0.3602495371596748,0.4657307722631112,0.5711761318239046,0.6727645719740618,0.766734118895529,0.8517510770638619,0.8950545445271934,0.8970185115892024,0.8850539669319335,0.8901772650300799,0.9328163363892885,0.965058370576332,0.9329435678423048,0.8943149713452436,0.8723004808425718,0.8688585973718654,0.8709714997192195,0.841519970994949,0.7951839786342343,0.7884682180324831,0.8404157714792089,0.8748387331009975,0.8499979098986741,0.7669456100246319,0.6729861657296783,0.5714205958246941,0.4662976519628603,0.3682173951210357,0.26892333267428503,0.1727853742204022,0.07377492051668377,0.007755582666147509,0.039540867380668754,0.12665826246999967,0.22951600044619824,0.3257606958850572,0.4292940512168373,0.5288852197302498,0.6280534971389531,0.7327779510864789,0.8251836266691057,0.8812236434411489,0.8896554061142015
0,1,2,3,4,5,6,7,8,9,10,11,12,13,14,15,16,17,18,19,20,21,22,23,24,25,26,27,28,29,30,31,32,33,34,35,36,37,38,39,40,41,42,43,44,45,46,47,48,49,50,51,52,53,54,55,56,57,58,59,60,61,62,63,64,65,66,67,68,69,70,71,72,73,74,75,76,77,78,79,80,81,82,83,84,85,86,87,88,89,90,91,92,93,94,95,96,97,98,99,100,101,102,103,104,105,106,107,108,109,110,111,112,113,114,115,116,117,118,119,120,121,122,123,124,125,126,127,128,129,130,131,132,133,134,135,136,137,138,139,140,141,142,143,144,145,146,147,148,149,150,151,152,153,154,155,156,157,158,159,160,161,162,163,164,165,166,167,168,169,170,171,172,173,174,175,176,177,178,179,180,181,182,183,184,185,186,187,188,189,190,191,192,193,194,195,196,197,198,199,200,201,202,203,204,205,206,207,208,209,210,211,212,213,214,215,216,217,218,219,220,221,222,223,224,225,226,227,228,229,230,231,232,233,234,235,236,237,238,239,240,241,242,243,244,245,246,247,248,249,250,251,252,253,254
0.8608282662551643,0.8417250406591439,0.8587216457754079,0.8984559127554967,0.8767626653601144,0.8723833869649673,0.890845605245242,0.9045411531689806,0.8954906686012447,0.8657334409371908,0.8515603383054953,0.8312886820551224,0.8179703552276454,0.8415060597929607,0.825871783645046,0.8005400519006094,0.7801238397496921,0.7407422085046367,0.6698687404522587,0.6218120199681927,0.6459186417003742,0.6946779170557158,0.7406827828097664,0.7646745241187234,0.8008036917365375,0.8488040921824589,0.9250014936196362,0.9919654849286843,0.9371395841196826,0.8279654238193395,0.7155616936268321,0.5988202369113669,0.5493456763680746,0.6414050819864023,0.7530646975161477,0.8456407385799687,0.8868948656910769,0.8708932632964008,0.8866783776129123,0.8675684751127144,0.8361227737458727,0.8414742069647669,0.8879162087341541,0.9142563912920609,0.8765704368255318,0.8145952817500977,0.7859624932697304,0.7492985456737342,0.6974520631462635,0.6664573308762431,0.7009947222908592,0.735365370856083,0.7670445433048556,0.8071844316403975,0.8454574040102356,0.9000711480668904,0.9739787841837795,1.0,0.9127727516089696,0.800730722487049,0.6825867654998081,0.5737883182007693,0.5641777010601268,0.6700216553529255,0.7779834134850754,0.8680031437575044,0.8916219250157948,0.8698409394549178,0.8767998350249675,0.8972543532127464,0.8763542934528186,0.8523770804210646,0.8576807525262078,0.848836080521171,0.8273894465886156,0.8296030294707823,0.8412027250546212,0.8048505924336027,0.7386643382391216,0.6765418802101739,0.6260414506287071,0.6519879844299767,0.6998030200188294,0.7369530026500284,0.774718002104843,0.8225057642099425,0.8496564598162393,0.9090867708032082,0.9884736831763759,0.9630378482849165,0.8605825634316653,0.7715071206161133,0.6534344609882878,0.5427088834397029,0.5548493260013787,0.6645472129983987,0.7703818288128166,0.84385945266671,0.8676474740510542,0.8936519988116514,0.9160556446577166,0.9072332705259472,0.8679715174926463,0.8621602828132886,0.8545004394020115,0.8336112215301568,0.8020899517917743,0.7378002771628696,0.65570344420804,0.600069094545828,0.6206861476529544,0.6531601420208162,0.7152672728432776,0.7581970279445946,0.7284395636123464,0.6606814534716574,0.5879972013900256,0.4722337587739287,0.3546739737378899,0.3160861441872269,0.38757718308567135,0.5088949679911043,0.5755933958408441,0.5240976686566254,0.4163667732896874,0.32373439497542256,0.31595935317440116,0.39061628325060704,0.48512562112523083,0.548038780762441,0.6236640823789052,0.7042872334289205,0.7500042890223777,0.7658284603558472,0.7785978219065006,0.7711169736245047,0.7872261381455998,0.824819811039283,0.8175657514731753,0.7952034133080041,0.7680643406326251,0.731929314051849,0.6289642677968863,0.5139106867527548,0.38938237707605916,0.265025643642248,0.15134066091077392,0.0656303567690304,0.11056690614887676,0.21975995687369387,0.3382493866580041,0.4576833191117662,0.571086397968009,0.6911541811230464,0.795032511100517,0.8005613693385536,0.7597306540609452,0.7263177407452313,0.6778746402717313,0.6449300372213411,0.6035547717731005,0.5546796728325076,0.5421240120717159,0.5856522696235635,0.6567649053912028,0.7217045567829725,0.7502197771438457,0.7436528430575922,0.7599029065987817,0.7812097027366023,0.770426593867374,0.7837570795620077,0.8093390409177128,0.8021161971858919,0.7790814904405474,0.790766286468779,0.8031764622635031,0.7221650130096631,0.608562611197975,0.49105504781495046,0.3770585612971078,0.2583546451919023,0.13590030116897012,0.0313305865548541,0.0038955063101027143,0.09853261578593475,0.21690050659795768,0.33058216352573666,0.45439473299062616,0.5685347802848364,0.6860199403471232,0.7963713224837194,0.8444650412562202,0.7816917113495196,0.7649256491046748,0.7181985603361869,0.6806693796105128,0.6450419425068543,0.608130035676218,0.5809249309955034,0.6085641679212941,0.6617592853323284,0.7013526115658966,0.7252216187144449,0.7792669759641515,0.8222785117152496,0.7883821575535217,0.7438842739174465,0.7436139130448258,0.7834926038666783,0.8011802810904443,0.795225753879611,0.7684909083131823,0.6751711092735131,0.5589979070756814,0.4472841728227288,0.3252433275972013,0.21028699587311506,0.09311577144328487,0.0,0.03343891808421873,0.1397907406889356,0.2635303050760993,0.3883591838414411,0.513183366032592,0.635738324031291,0.746841133477266,0.8237774505032536,0.7716362366101106,0.7269171848135785,0.68766307596837,0.6620486081518036,0.6186428367007681,0.5696180716254808,0.5413009752507225,0.5547453908141953,0.626845209110459,0.6846857777102655,0.7128583340703978,0.7351855677662469,0.7549340810442011,0.7314847532272388,0.7472663536236204,0.7707713680386865,0.773385051381497,0.7938892448210035,0.8298411187113941,0.824631561190206,0.801613320906791,0.7877212948459484,0.7930557892904933,0.8118416980816483,0.7756577810172867,0.7661462674283568,0.7858877134154629
0,1,2,3,4,5,6,7,8,9,10,11,12,13,14,15,16,17,18,19,20,21,22,23,24,25,26,27,28,29,30,31,32,33,34,35,36,37,38,39,40,41,42,43,44,45,46,47,48,49,50,51,52,53,54,55,56,57,58,59,60,61,62,63,64,65,66,67,68,69,70,71,72,73,74,75,76,77,78,79,80,81,82,83,84,85,86,87,88,89,90,91,92,93,94,95,96,97,98,99,100,101,102,103,104,105,106,107,108,109,110,111,112,113,114,115,116,117,118,119,120,121,122,123,124,125,126,127,128,129,130,131,132,133,134,135,136,137,138,139,140,141,142,143,144,145,146,147,148,149,150,151,152,153,154,155,156,157,158,159,160,161,162,163,164,165,166,167,168,169,170,171,172,173,174,175,176,177,178,179,180,181,182,183,184,185,186,187,188,189,190,191,192,193,194,195,196,197,198,199,200,201,202,203,204,205,206,207,208,209,210,211,212,213,214,215,216,217,218,219,220,221,222,223,224,225,226,227,228,229,230,231,232,233,234,235,236,237,238,239,240,241,242,243,244,245,246,247,248,249,250,251,252,253,254
0.3473289901437986,0.34823819550923263,0.362409756524777,0.3523018262951898,0.3585378508968238,0.3451449272318112,0.3569378705588946,0.4116771070774088,0.4717350203594042,0.5268579680832595,0.5561054775338805,0.5375949118087737,0.506078101230929,0.4835925002366337,0.5059547696173543,0.5106010233095715,0.523411366943968,0.5488361864080606,0.5864044330142426,0.6591110084984897,0.7474820963791733,0.8370782211852847,0.930096549548447,1.0,0.9813488545835072,0.892900396910314,0.8312018593507804,0.7491081958368437,0.6572741867952798,0.6037789044174668,0.6105586831990082,0.5881746584339282,0.5650212222726125,0.5683899315037477,0.575464591985376,0.60818706541707,0.6291603002426709,0.6318714115204616,0.6318767357816539,0.6301615261631164,0.6073971973594037,0.5965667673115251,0.5895962396953802,0.5723957219420845,0.5538828791901715,0.5625272177995853,0.5622397535429506,0.5263605764756307,0.5163566322001549,0.5304215124932314,0.5756005066961656,0.5957537272967715,0.5799549164624436,0.5473380827678924,0.5188232932744876,0.4941698316311509,0.4760218200149917,0.46681112955819204,0.4777559282700423,0.5169947439437936,0.5538922946103444,0.6314634014877036,0.7164391957414322,0.8064083378088509,0.8864704835888979,0.8903723755053758,0.8213128102217353,0.750676613977995,0.6625122772399781,0.5662184652904951,0.48226835365521126,0.4494521038813084,0.4553717170734486,0.42308060481364906,0.3833221284652444,0.362050678198516,0.3866642575228143,0.43155573055752194,0.4496330354377669,0.44170183938932706,0.4490791455874037,0.4410410246394809,0.44992553397633017,0.4493370373019796,0.45310196459267305,0.4504288018823539,0.4508997142572735,0.4494180505449381,0.45144634972743614,0.42758873176210876,0.4183807175480103,0.4533896054351514,0.5063505333141891,0.5527549970758918,0.5647704128155238,0.5229536753894388,0.48319667899891305,0.45684776860538845,0.4248025808295144,0.43109954010820317,0.4001159304883841,0.40197702062577223,0.43102448103709357,0.44173085398341927,0.49843174947291935,0.5828306647166865,0.6709052032924419,0.7634006702100113,0.8282505539408995,0.7941005359592483,0.7157657492607452,0.6496488920866623,0.5657823256880392,0.4775878823826125,0.4398624962221862,0.4574880443707148,0.45576643025372565,0.4112638151217989,0.39460135082556036,0.39013088230485504,0.3952612694417841,0.43101936152143816,0.4216333026262835,0.3814250800673378,0.32854546411489194,0.24776599245173792,0.14244445657026672,0.041502916696573244,0.0,0.021373813803408748,0.11141268963110917,0.2173317063526503,0.29825958357423277,0.2780131975625886,0.17991811151019554,0.07471976830738702,0.006267153212810683,0.0026709360469969745,0.05897362776671056,0.16272130641175586,0.26490334096446677,0.32062233564973885,0.3536782129381888,0.3839653945329693,0.38894321239015284,0.37466143053276024,0.39870973972644697,0.4794795750770331,0.560462625296068,0.6246749185115403,0.6599204629265834,0.5832542855916008,0.4900422695866493,0.41277902406389444,0.3779311618319996,0.35517217462358364,0.3307836365543806,0.3338362783912916,0.3380998652343772,0.3701638252861197,0.3920356432677825,0.42862532938453146,0.4649304927445561,0.49345268183295143,0.4549117424660998,0.4056785380211667,0.358322116633746,0.35753420371760436,0.36712288068437937,0.38633228473109904,0.3717376696632235,0.3699128263709279,0.3725820007452185,0.379899286549497,0.38386936701301444,0.3791778561974106,0.36498404619717295,0.37713107932476797,0.3800781838528051,0.36331649398358135,0.34865358271660485,0.3249395256697487,0.292401461233728,0.2944353091135943,0.3384500570104967,0.38099236321248897,0.4038890895901255,0.39100816825966556,0.4014126105626712,0.4779802012509813,0.5705438890730736,0.662471705786158,0.7306568479149127,0.7061558001297619,0.6242597927156917,0.5420064944795429,0.47972544659173755,0.45512380969353883,0.4196389178911093,0.40762819187403787,0.4133267607729292,0.44024969906714384,0.4625808533882032,0.48942393693599806,0.5258632067150004,0.5421636921562976,0.5125178726435036,0.46625029084488867,0.4512119389781124,0.46533685642206013,0.4906730608808938,0.48803444053587697,0.505749753440718,0.5232820365990656,0.5387064296295492,0.5551508022707998,0.5639211604626073,0.5761079180062816,0.5859539560345817,0.5734951185064423,0.5587902288423372,0.5204275557574212,0.5107580603855006,0.4934296238407203,0.5104906461794791,0.5315027522618414,0.5508167420274965,0.5298608008500683,0.5483623866922316,0.6272274217820115,0.716098375877416,0.7903167086542409,0.8391121823627761,0.7738490922372696,0.6828991478528548,0.5987826863101802,0.5399064279913492,0.5017211428334667,0.47884503705048687,0.44925302280784507,0.44802224397398094,0.43834106525188377,0.42375934365648105,0.44836755031423703,0.4824472533650961,0.4892089992009425,0.44249857176196317,0.37938123976537463,0.31160525001277906,0.2898288266080318,0.28053920930441656,0.2879516050904063,0.27736139883770683,0.2843309700300227,0.2732972571439589
0,1,2,3,4,5,6,7,8,9,10,11,12,13,14,15,16,17,18,19,20,21,22,23,24,25,26,27,28,29,30,31,32,33,34,35,36,37,38,39,40,41,42,43,44,45,46,47,48,49,50,51,52,53,54,55,56,57,58,59,60,61,62,63,64,65,66,67,68,69,70,71,72,73,74,75,76,77,78,79,80,81,82,83,84,85,86,87,88,89,90,91,92,93,94,95,96,97,98,99,100,101,102,103,104,105,106,107,108,109,110,111,112,113,114,115,116,117,118,119,120,121,122,123,124,125,126,127,128,129,130,131,132,133,134,135,136,137,138,139,140,141,142,143,144,145,146,147,148,149,150,151,152,153,154,155,156,157,158,159,160,161,162,163,164,165,166,167,168,169,170,171,172,173,174,175,176,177,178,179,180,181,182,183,184,185,186,187,188,189,190,191,192,193,194,195,196,197,198,199,200,201,202,203,204,205,206,207,208,209,210,211,212,213,214,215,216,217,218,219,220,221,222,223,224,225,226,227,228,229,230,231,232,233,234,235,236,237,238,239,240,241,242,243,244,245,246,247,248,249,250,251,252,253,254
0.3473289901437986,0.34823819550923263,0.362409756524777,0.3523018262951898,0.3585378508968238,0.3451449272318112,0.3569378705588946,0.4116771070774088,0.4717350203594042,0.5268579680832595,0.5561054775338805,0.5375949118087737,0.506078101230929,0.4835925002366337,0.5059547696173543,0.5106010233095715,0.523411366943968,0.5488361864080606,0.5864044330142426,0.6591110084984897,0.7474820963791733,0.8370782211852847,0.930096549548447,1.0,0.9813488545835072,0.892900396910314,0.8312018593507804,0.7491081958368437,0.6572741867952798,0.6037789044174668,0.6105586831990082,0.5881746584339282,0.5650212222726125,0.5683899315037477,0.575464591985376,0.60818706541707,0.6291603002426709,0.6318714115204616,0.6318767357816539,0.6301615261631164,0.6073971973594037,0.5965667673115251,0.5895962396953802,0.5723957219420845,0.5538828791901715,0.5625272177995853,0.5622397535429506,0.5263605764756307,0.5163566322001549,0.5304215124932314,0.5756005066961656,0.5957537272967715,0.5799549164624436,0.5473380827678924,0.5188232932744876,0.4941698316311509,0.4760218200149917,0.46681112955819204,0.4777559282700423,0.5169947439437936,0.5538922946103444,0.6314634014877036,0.7164391957414322,0.8064083378088509,0.8864704835888979,0.8903723755053758,0.8213128102217353,0.750676613977995,0.6625122772399781,0.5662184652904951,0.48226835365521126,0.4494521038813084,0.4553717170734486,0.42308060481364906,0.3833221284652444,0.362050678198516,0.3866642575228143,0.43155573055752194,0.4496330354377669,0.44170183938932706,0.4490791455874037,0.4410410246394809,0.44992553397633017,0.4493370373019796,0.45310196459267305,0.4504288018823539,0.4508997142572735,0.4494180505449381,0.45144634972743614,0.42758873176210876,0.4183807175480103,0.4533896054351514,0.5063505333141891,0.5527549970758918,0.5647704128155238,0.5229536753894388,0.48319667899891305,0.45684776860538845,0.4248025808295144,0.43109954010820317,0.4001159304883841,0.40197702062577223,0.43102448103709357,0.44173085398341927,0.49843174947291935,0.5828306647166865,0.6709052032924419,0.7634006702100113,0.8282505539408995,0.7941005359592483,0.7157657492607452,0.6496488920866623,0.5657823256880392,0.4775878823826125,0.4398624962221862,0.4574880443707148,0.45576643025372565,0.4112638151217989,0.39460135082556036,0.39013088230485504,0.3952612694417841,0.43101936152143816,0.4216333026262835,0.3814250800673378,0.32854546411489194,0.24776599245173792,0.14244445657026672,0.041502916696573244,0.0,0.021373813803408748,0.11141268963110917,0.2173317063526503,0.29825958357423277,0.2780131975625886,0.17991811151019554,0.07471976830738702,0.006267153212810683,0.0026709360469969745,0.05897362776671056,0.16272130641175586,0.26490334096446677,0.32062233564973885,0.3536782129381888,0.3839653945329693,0.38894321239015284,0.37466143053276024,0.39870973972644697,0.4794795750770331,0.560462625296068,0.6246749185115403,0.6599204629265834,0.5832542855916008,0.4900422695866493,0.41277902406389444,0.3779311618319996,0.35517217462358364,0.3307836365543806,0.3338362783912916,0.3380998652343772,0.3701638252861197,0.3920356432677825,0.42862532938453146,0.4649304927445561,0.49345268183295143,0.4549117424660998,0.4056785380211667,0.358322116633746,0.35753420371760436,0.36712288068437937,0.38633228473109904,0.3717376696632235,0.3699128263709279,0.3725820007452185,0.379899286549497,0.38386936701301444,0.3791778561974106,0.36498404619717295,0.37713107932476797,0.3800781838528051,0.36331649398358135,0.34865358271660485,0.3249395256697487,0.292401461233728,0.2944353091135943,0.3384500570104967,0.38099236321248897,0.4038890895901255,0.39100816825966556,0.4014126105626712,0.4779802012509813,0.5705438890730736,0.662471705786158,0.7306568479149127,0.7061558001297619,0.6242597927156917,0.5420064944795429,0.47972544659173755,0.45512380969353883,0.4196389178911093,0.40762819187403787,0.4133267607729292,0.44024969906714384,0.4625808533882032,0.48942393693599806,0.5258632067150004,0.5421636921562976,0.5125178726435036,0.46625029084488867,0.4512119389781124,0.46533685642206013,0.4906730608808938,0.48803444053587697,0.505749753440718,0.5232820365990656,0.5387064296295492,0.5551508022707998,0.5639211604626073,0.5761079180062816,0.5859539560345817,0.5734951185064423,0.5587902288423372,0.5204275557574212,0.5107580603855006,0.4934296238407203,0.5104906461794791,0.5315027522618414,0.5508167420274965,0.5298608008500683,0.5483623866922316,0.6272274217820115,0.716098375877416,0.7903167086542409,0.8391121823627761,0.7738490922372696,0.6828991478528548,0.5987826863101802,0.5399064279913492,0.5017211428334667,0.47884503705048687,0.44925302280784507,0.44802224397398094,0.43834106525188377,0.42375934365648105,0.44836755031423703,0.4824472533650961,0.4892089992009425,0.44249857176196317,0.37938123976537463,0.31160525001277906,0.2898288266080318,0.28053920930441656,0.2879516050904063,0.27736139883770683,0.2843309700300227,0.2732972571439589
0,1,2,3,4,5,6,7,8,9,10,11,12,13,14,15,16,17,18,19,20,21,22,23,24,25,26,27,28,29,30,31,32,33,34,35,36,37,38,39,40,41,42,43,44,45,46,47,48,49,50,51,52,53,54,55,56,57,58,59,60,61,62,63,64,65,66,67,68,69,70,71,72,73,74,75,76,77,78,79,80,81,82,83,84,85,86,87,88,89,90,91,92,93,94,95,96,97,98,99,100,101,102,103,104,105,106,107,108,109,110,111,112,113,114,115,116,117,118,119,120,121,122,123,124,125,126,127,128,129,130,131,132,133,134,135,136,137,138,139,140,141,142,143,144,145,146,147,148,149,150,151,152,153,154,155,156,157,158,159,160,161,162,163,164,165,166,167,168,169,170,171,172,173,174,175,176,177,178,179,180,181,182,183,184,185,186,187,188,189,190,191,192,193,194,195,196,197,198,199,200,201,202,203,204,205,206,207,208,209,210,211,212,213,214,215,216,217,218,219,220,221,222,223,224,225,226,227,228,229,230,231,232,233,234,235,236,237,238,239,240,241,242,243,244,245,246,247,248,249,250,251,252,253,254
0.7527292565281205,0.7873004000593178,0.7863342067526737,0.7801159956816011,0.8551203990520988,0.9686948542675928,0.9745164954891052,0.8502173731557248,0.6966108437751495,0.5449136775757362,0.4772308642048757,0.5728970647158489,0.6992741191361644,0.7936975330389919,0.7991079387638811,0.7363473721941984,0.651755233293065,0.5713637771953963,0.5635857188214484,0.6527704141771298,0.726783912004588,0.734072459314342,0.7401458873317295,0.7146227596365824,0.7009851705922161,0.684980397990719,0.670780451618123,0.6808771077027753,0.7021348336409403,0.7125092956472914,0.6726002274662068,0.6406488476568493,0.587026951921847,0.503785204189958,0.40478554106128284,0.3053433817331541,0.2862735338438158,0.3687975730797204,0.4681702423909173,0.5661568818133613,0.6547320111281913,0.7134311145921761,0.7427925994579869,0.7401395157708586,0.7617423888615522,0.856323125189641,0.9750416293769026,1.0,0.8780099424121457,0.7375282969985233,0.5839831955269812,0.4561918881629876,0.5092259251394706,0.635403769997084,0.7532914962561335,0.794175365808333,0.7592855051105363,0.6964510818419165,0.5937716965793518,0.505452326666461,0.5243273264894364,0.6179142280871077,0.6893678244506476,0.6995915640314072,0.6917611351280901,0.6736598339617421,0.6688610753895556,0.6828538671463829,0.7115312649271468,0.7184678159936304,0.7022505608808101,0.6846324837395601,0.623810666373315,0.5400525230741384,0.44225336365795487,0.3432222712633237,0.2970757799336621,0.3622509465512529,0.4600305657254986,0.5625888816731579,0.6539236889848561,0.7126107706164757,0.7589109312337614,0.7536663896738851,0.7379712641071627,0.8102219037264256,0.9311465641001204,0.9620890294582374,0.8348038328075722,0.6941296777821502,0.5390775054055532,0.42324388851339423,0.49084672656311,0.6161554806033949,0.7219398173725633,0.7336549472280169,0.6878399627619807,0.60743605731553,0.5096330690843702,0.48836878382981563,0.5823070543119333,0.6785303476458528,0.7214403791977784,0.7228889415010324,0.7150600634450504,0.7082449735863277,0.7136469512289221,0.740347736730322,0.7460283921462563,0.7400104110367405,0.7438165048809893,0.7203929742517885,0.6581736513901819,0.5752708466000778,0.48773053201590155,0.44912187116383073,0.37577468660643065,0.28121180400396595,0.3456570613013388,0.43541684595908237,0.4955265224895058,0.5488272421293972,0.48730583611172174,0.37674725503178275,0.22312691651631145,0.08182973066434007,0.04381560153132469,0.1143327428525498,0.1896747180758993,0.1253478362370264,0.04665257527746469,0.08224111699332282,0.2038220295259099,0.310137119779355,0.4097278426389388,0.5076372287652027,0.5962463369351654,0.6570683839059739,0.66948639596017,0.6763909687775653,0.6756911371855217,0.6482765177810497,0.633365643252858,0.6347392359558288,0.6477880415723591,0.6559352109075811,0.6440837897005571,0.5621070656313245,0.4573316452549694,0.38980223846600826,0.41120859190411974,0.5163999220072917,0.6075697303927239,0.6628365036221067,0.6234636125084747,0.49902198128480046,0.3767960622851394,0.2530118261644021,0.11253650560778494,0.0,0.04785159021991836,0.20008989712021918,0.3450078443553788,0.4937597424289928,0.6443373871926279,0.6879469500366988,0.6750380826211084,0.6892871881963107,0.660826173573104,0.6020410124240079,0.5140793738264575,0.40867661484727513,0.3086210481080274,0.22989238012949498,0.2116695824210293,0.2767723894961409,0.37260450402705425,0.47444459857142585,0.5677072823195877,0.6176519152767539,0.635193720197849,0.6407696285579259,0.6328893312777311,0.614986794564806,0.603513008344708,0.6027806722143483,0.6181573584711031,0.6339811534068929,0.6150068114154248,0.5295157556692573,0.43575313901292345,0.40729579014017236,0.4698240764288739,0.5794425463689588,0.6663244888882476,0.6966692860397927,0.6070859300061673,0.48288595941239487,0.35732931539901536,0.22195513163530922,0.08538418002695769,0.04060991336084463,0.15623677454228835,0.31324938903284627,0.4710337516550034,0.6204511427278319,0.7045937850876154,0.6764679656375412,0.6739503191512624,0.6593303231773269,0.6438192376690153,0.5728999846536058,0.4937104220692454,0.38742001334772835,0.2865683623332118,0.2113463614187583,0.19435093082637156,0.2640273177325003,0.3634361724272699,0.46105314843283374,0.5410260138157374,0.5825498770867292,0.6250040365835221,0.6316768175838781,0.6075739484895628,0.6069551257851962,0.6069788330334607,0.6261449174186979,0.6389545346025121,0.6444992253803314,0.6668910055997546,0.6528937227742015,0.5765394233111509,0.4886570243034636,0.4660120945384514,0.5311293207527901,0.6142033401605542,0.6944459230624522,0.7205839248717112,0.6472418525003438,0.5129792201456715,0.3883228968939445,0.2493715082124659,0.11390034479269984,0.03577966394390053,0.11791587977008966,0.2673042656288418,0.40990861698232806,0.5612974182294059,0.7022208655491813,0.7162637414575355,0.704247205432718,0.7190321817402641,0.7155520534851245,0.6592020244059511
0,1,2,3,4,5,6,7,8,9,10,11,12,13,14,15,16,17,18,19,20,21,22,23,24,25,26,27,28,29,30,31,32,33,34,35,36,37,38,39,40,41,42,43,44,45,46,47,48,49,50,51,52,53,54,55,56,57,58,59,60,61,62,63,64,65,66,67,68,69,70,71,72,73,74,75,76,77,78,79,80,81,82,83,84,85,86,87,88,89,90,91,92,93,94,95,96,97,98,99,100,101,102,103,104,105,106,107,108,109,110,111,112,113,114,115,116,117,118,119,120,121,122,123,124,125,126,127,128,129,130,131,132,133,134,135,136,137,138,139,140,141,142,143,144,145,146,147,148,149,150,151,152,153,154,155,156,157,158,159,160,161,162,163,164,165,166,167,168,169,170,171,172,173,174,175,176,177,178,179,180,181,182,183,184,185,186,187,188,189,190,191,192,193,194,195,196,197,198,199,200,201,202,203,204,205,206,207,208,209,210,211,212,213,214,215,216,217,218,219,220,221,222,223,224,225,226,227,228,229,230,231,232,233,234,235,236,237,238,239,240,241,242,243,244,245,246,247,248,249,250,251,252,253,254
0.8123624661147542,0.9051442476465104,0.9797093157838312,0.9147084541532915,0.8071623921069868,0.7316743243759332,0.8142132893540079,0.9326549578310299,0.9822583221018393,0.9703444487823236,0.9536559336539363,0.905502114492613,0.840385856161523,0.8472049907781685,0.8956720413349069,0.945597788409263,0.9375665820094303,0.9301017313316717,0.9164975667445314,0.9006779696894336,0.8708054529119096,0.8208877595535391,0.7569512160559158,0.6757448814398614,0.5861152702412111,0.49015490624818936,0.3987061791311901,0.3269062714829989,0.3539274562457675,0.43875941170232213,0.5307168624343395,0.6230252511497278,0.7002030452674646,0.7758609323280425,0.8845477235084189,0.9941991166333115,1.0,0.9039795625729536,0.7853717249142815,0.6535967494002533,0.6267067280798906,0.747417925632309,0.8697351615160418,0.9449212924496764,0.956979336933848,0.9495746055058514,0.9170474630609045,0.8464368591455425,0.8103482662775812,0.8549709315270642,0.9265639430003572,0.9361284050294079,0.9148233016142093,0.8960638310743789,0.8528138013053916,0.7769748279792084,0.6952018062587926,0.612225454463827,0.5148555419176724,0.42675112237348944,0.3835110439655409,0.4401855912627535,0.530995066477475,0.6184167714144033,0.7014702334306722,0.7766900632109754,0.871220906947562,0.9729724020964592,0.9846797711314657,0.8884653152931996,0.7590514394332062,0.6234644404974823,0.5390232493006173,0.6282443958204511,0.7601659081773464,0.878826023827143,0.9381033628049598,0.9398848795451507,0.9139497126796803,0.8482982726152306,0.7825271974491308,0.7937622675446669,0.8624848424902276,0.8932815193275765,0.8795174212088464,0.8640792256465919,0.841899746943811,0.8036827280181758,0.7573960924123897,0.6841781716991298,0.5954150643078289,0.5097785610400809,0.41882791873979075,0.32035423354718784,0.2776165119352232,0.3433956163444827,0.42990430682883574,0.5166659506210762,0.6049482440103553,0.6810356543032197,0.7656909946799351,0.8719855291002951,0.9179118529002004,0.8439567750323422,0.7329179834869008,0.6095816496692659,0.5957112944472045,0.7211658220551906,0.8451882160134625,0.926285462441971,0.934358785750637,0.909234810389973,0.8660481359467065,0.796328283399959,0.7810013174307406,0.7876279671419373,0.7204545994630225,0.7088912280285542,0.7796075270002212,0.8357965549486988,0.8595733900605986,0.8321939925496298,0.7511561070805599,0.6207410674456035,0.4876636390759259,0.3477147289845477,0.2133607479140105,0.08044741577632131,0.06431041639205315,0.18388979958699814,0.3201805084775642,0.45538203522218934,0.5883598766661993,0.7163091381723494,0.8075254595193604,0.7535077108017671,0.6598384037286262,0.587600374049416,0.4999372966940885,0.40811655450255024,0.32458993448217655,0.24413207010310511,0.20950422297823046,0.25971663460481764,0.35278857365929595,0.4429098502315929,0.5322201342204789,0.623928055590826,0.6933469476497627,0.7439146958037863,0.7867432391554696,0.799279991522504,0.8070838182062925,0.8241055883659625,0.7656915139529907,0.7114888307063723,0.7042433312000358,0.764370105222226,0.8392201807329718,0.8681654622132511,0.8681966377576682,0.8275775944408714,0.7058558226159497,0.5715235090427635,0.4334808810557158,0.2949161550934063,0.15684969664273574,0.025482194682153736,0.0,0.1254797002059389,0.2698993073061824,0.4044652763196357,0.546778394982582,0.6788144464388939,0.8042019577244135,0.8792877483897277,0.8148387672000554,0.7239057959189434,0.6464197006886159,0.562857178893962,0.4744625972057097,0.3817484188159055,0.32212222668157375,0.3258275818942362,0.4009040681442033,0.4971112524335397,0.5877273789645932,0.6686153592717514,0.7559600553063235,0.821594146631428,0.845750444057285,0.8659330893383843,0.868878968175546,0.801240759989108,0.7467269243125441,0.7426694286202453,0.8159301317182881,0.8797215704074097,0.8987319583561115,0.8746184373102066,0.769927572871457,0.6396977107320967,0.5062250319623649,0.3666554645943787,0.23114395523953446,0.12372366909436838,0.17621148602033276,0.31023715748928904,0.44464916099938945,0.5813132103540637,0.712784913014203,0.8363449696833993,0.8762258278564476,0.7844977031648224,0.6884657345557215,0.6190382306096582,0.5348276576815594,0.4376057719129758,0.3499864094280598,0.27686545178693756,0.26672761119979205,0.33197824556414446,0.4327469799237784,0.5262647701320136,0.617333213186094,0.7035173887812967,0.7621408717091391,0.8055375541992631,0.8405694546081692,0.8468864776680207,0.8466814196868726,0.8617567531244807,0.8680412794651313,0.8066732520882143,0.7630412329830154,0.7407811447899282,0.7755848762007349,0.8514916369828405,0.9008863268546481,0.8991877095601613,0.844839957034857,0.720288584841827,0.5841110518398311,0.44833046474209937,0.3255620585600365,0.20702486980446722,0.13885012510617134,0.23452397632196043,0.3679256505777655,0.5077855192200822,0.6392858468188471,0.760584975456136,0.8540239371544329,0.8154169750048279,0.7336231222345613
0,1,2,3,4,5,6,7,8,9,10,11,12,13,14,15,16,17,18,19,20,21,22,23,24,25,26,27,28,29,30,31,32,33,34,35,36,37,38,39,40,41,42,43,44,45,46,47,48,49,50,51,52,53,54,55,56,57,58,59,60,61,62,63,64,65,66,67,68,69,70,71,72,73,74,75,76,77,78,79,80,81,82,83,84,85,86,87,88,89,90,91,92,93,94,95,96,97,98,99,100,101,102,103,104,105,106,107,108,109,110,111,112,113,114,115,116,117,118,119,120,121,122,123,124,125,126,127,128,129,130,131,132,133,134,135,136,137,138,139,140,141,142,143,144,145,146,147,148,149,150,151,152,153,154,155,156,157,158,159,160,161,162,163,164,165,166,167,168,169,170,171,172,173,174,175,176,177,178,179,180,181,182,183,184,185,186,187,188,189,190,191,192,193,194,195,196,197,198,199,200,201,202,203,204,205,206,207,208,209,210,211,212,213,214,215,216,217,218,219,220,221,222,223,224,225,226,227,228,229,230,231,232,233,234,235,236,237,238,239,240,241,242,243,244,245,246,247,248,249,250,251,252,253,254
0.7461387707627183,0.7198264838693906,0.649470607068841,0.5373430524662202,0.4159582598206222,0.35706745712522103,0.4551342777577201,0.5591573141680648,0.5973117533769257,0.5927104461015009,0.5514065716050913,0.4593787292262892,0.34934507675381266,0.23466479939754015,0.22527652571327694,0.3339746646205701,0.4531832847965198,0.5786614560179895,0.6824340657699537,0.7507402230452387,0.7907218147702673,0.820465172078034,0.8283628149703683,0.9072644693818686,0.8624010369421171,0.7250031570342004,0.5899331997841895,0.5873044775807315,0.706508357019084,0.7940304897600656,0.7957596914160878,0.7732195525602554,0.7103744720449008,0.6059121237353766,0.4842642661285743,0.39844275494198245,0.46429935511055564,0.5743435089264959,0.63188811098671,0.6173774708159376,0.5768277002125153,0.48740692098622596,0.38311625943936933,0.26782055059957877,0.1747559027806207,0.21814221607309836,0.33620286238971886,0.45607967232005464,0.5693036831453173,0.6595478400753652,0.71585213281474,0.7437253008019402,0.7546279125848749,0.8492263190566036,0.8905872486797479,0.782315633661467,0.6298728371448714,0.5044296336038672,0.5536528000484515,0.6627561117240748,0.6869736370867225,0.6624577392273054,0.6128159814118823,0.5311076066705294,0.4159626914530117,0.3265522175422082,0.3963663754222675,0.5054138531220405,0.5776169201537065,0.5957707124623073,0.5597168108035331,0.47396360897129464,0.3597936964363244,0.24572226962956556,0.21535468782718237,0.32383982940545897,0.4527005279807783,0.5685043059309938,0.6755221336216963,0.7680183441760082,0.8239034955996485,0.8647008302595371,0.859578328990398,0.9449976544801957,1.0,0.8976092906629627,0.7548224310221965,0.6303524630808242,0.6784749618872836,0.7733362423774013,0.7636540392396922,0.7270891664648986,0.6710209181021187,0.5810179662073978,0.47048384991409975,0.3976763461935291,0.4717140765310637,0.5645495554862108,0.596593294327938,0.5777247090487903,0.5182866390888949,0.4331843373881945,0.3133071297340626,0.21354095584561783,0.2597021161481168,0.3747798550848498,0.5027137258830483,0.6192845860835061,0.7195691096376686,0.7948669010286884,0.8279778684920971,0.8382010876758006,0.8576341221640527,0.9108587801953614,0.8173731236643533,0.677869649606119,0.5538472446955645,0.5908666314655027,0.7166451320118159,0.7599521348312166,0.668981338651117,0.5276193156823483,0.3979236929351031,0.2554636372273773,0.08887714665972002,0.0,0.05122329642038359,0.1970654905962621,0.3008233345992273,0.3013898747326702,0.14288293412415154,0.014204714520187345,0.01013326199031006,0.13172938486592045,0.2963810114463068,0.3884513239243663,0.4924313051690521,0.6329539052256932,0.7398596652095901,0.7394988589410545,0.7644997227402088,0.7538514312625124,0.6846648291531876,0.5838036525721031,0.47106647284869263,0.34986825924517273,0.22384713165008963,0.13587629159122905,0.16568709091817269,0.282077961241217,0.39107419991371506,0.47529176548355734,0.5226445610902388,0.5190150615522042,0.4351248415162061,0.3265902648038428,0.29430712521690605,0.3713554510003849,0.4867883183194399,0.5910263122395958,0.6598219597332213,0.6909704884586629,0.6416321133916667,0.5142034566254954,0.3753345822842049,0.3581554348104228,0.4878312086207792,0.6225966888180872,0.7475986728089437,0.8221310135928936,0.7758123530178596,0.7886672453040506,0.751776719738781,0.6939248231951636,0.5879374069100192,0.47231528359269825,0.353495542699958,0.23525450754823352,0.1311350051232374,0.13231154529311606,0.23349554309009424,0.3569266947300713,0.45795180262119395,0.5179345659645529,0.5094159373131215,0.4208686755850586,0.3017787307418107,0.2246743432371816,0.26704096205886874,0.37603480709188153,0.48373711868668456,0.5711475511292021,0.6081835175497465,0.5675359425837918,0.44865218096834925,0.31555969466290845,0.25998727675489786,0.3787432631056675,0.527625999540545,0.6644311269301744,0.6890358609486662,0.6705729335923358,0.67478678174556,0.6364316976176694,0.5611947109231257,0.45559718032984664,0.3289433253017897,0.20846734611159823,0.10132413835868137,0.06010666035643597,0.14293149258341398,0.257247254729037,0.37408380294000576,0.4805308302257636,0.5419555824920499,0.5530716250003156,0.48710641404132815,0.3778129922908757,0.3207869390995812,0.38879055044340705,0.5163984778454207,0.6242616916555859,0.6972054404865466,0.7240455152584215,0.668493288319167,0.5399009541128836,0.40788031916749246,0.3153069963461599,0.3914764458283537,0.5391728664822,0.6866128363743265,0.7591423937143564,0.7149859715757358,0.7218300224392564,0.7008610016049959,0.6405664070053927,0.5443216951882652,0.4273995787027678,0.298140869034476,0.1804966074629375,0.11143425988750888,0.17145138814838257,0.28204174300447127,0.3936006776820089,0.4842570883656463,0.5274257190377698,0.5235641489322846,0.4485823648668932,0.3327888009876845,0.2635100642361916,0.31933534341958136,0.44018536538587894,0.5685003112521132,0.6505212212717701,0.679870579663417
0,1,2,3,4,5,6,7,8,9,10,11,12,13,14,15,16,17,18,19,20,21,22,23,24,25,26,27,28,29,30,31,32,33,34,35,36,37,38,39,40,41,42,43,44,45,46,47,48,49,50,51,52,53,54,55,56,57,58,59,60,61,62,63,64,65,66,67,68,69,70,71,72,73,74,75,76,77,78,79,80,81,82,83,84,85,86,87,88,89,90,91,92,93,94,95,96,97,98,99,100,101,102,103,104,105,106,107,108,109,110,111,112,113,114,115,116,117,118,119,120,121,122,123,124,125,126,127,128,129,130,131,132,133,134,135,136,137,138,139,140,141,142,143,144,145,146,147,148,149,150,151,152,153,154,155,156,157,158,159,160,161,162,163,164,165,166,167,168,169,170,171,172,173,174,175,176,177,178,179,180,181,182,183,184,185,186,187,188,189,190,191,192,193,194,195,196,197,198,199,200,201,202,203,204,205,206,207,208,209,210,211,212,213,214,215,216,217,218,219,220,221,222,223,224,225,226,227,228,229,230,231,232,233,234,235,236,237,238,239,240,241,242,243,244,245,246,247,248,249,250,251,252,253,254
0.7043873008645498,0.6864397767516177,0.6837768476684705,0.6667420040470251,0.6675988072392514,0.6844711084905244,0.7008787221266628,0.7354237087251558,0.7690885390989894,0.7967101831493562,0.7654818567768835,0.7001124044123888,0.6422629396167672,0.5848942589557478,0.5464571411305932,0.5667413109312514,0.5918367607403527,0.6149654143121741,0.6507781564654267,0.6693543098125536,0.7257698658416167,0.8182440599510983,0.9133820297318653,0.9664709068367845,0.9075887454816689,0.8186781215666938,0.7611676288119194,0.7089888957493269,0.677989437276656,0.6137631334005169,0.5323199523871378,0.5073396827558714,0.5798967467380045,0.6492361744475179,0.6596414529185788,0.651159526639129,0.6601004095999903,0.659994629607787,0.6481099548460074,0.6588559903705531,0.6719751761935182,0.6990815146966494,0.7249594649839182,0.7078717803448056,0.6716581566441251,0.6134356528421745,0.5530010281139424,0.5014521135690715,0.4963149461770957,0.5320866450162263,0.5825995605086871,0.6216448596967821,0.6526398612435931,0.6693566115033187,0.7257698658416176,0.8183050777306295,0.9182993633725269,1.0,0.9810738079853545,0.8750656306453832,0.788971727658093,0.7298669502585682,0.6844632917519808,0.6514413156682703,0.580959343955691,0.48872192609994025,0.46711700456286076,0.5401759432636575,0.6142935320667444,0.6360616853077508,0.6364371245567857,0.6364343051989731,0.6341525274354392,0.6310603081798991,0.6575869904962559,0.6660938800356595,0.6880896783571906,0.7207820849664266,0.7300144936304225,0.695608202292247,0.6347636120418425,0.5852741009945706,0.544962826326373,0.5422808031015207,0.5720685629399793,0.6091385523659505,0.634605793234218,0.651839884622754,0.6840404457076925,0.7540541468884134,0.8490864128396973,0.9357650070554788,0.9520012647629166,0.8591857450460552,0.7816520371581337,0.7327800286509571,0.6932893867786278,0.6537381695113806,0.5815705052397053,0.5238555843190791,0.5618866166934455,0.6305658960600646,0.6985406181695328,0.6948121112751915,0.6775347855755918,0.6779788782305758,0.6839339740004347,0.6795121589574338,0.6887439599154135,0.7104737306568927,0.7458411011299395,0.7630247280481948,0.7804131212766388,0.7695335745087837,0.7093081301735698,0.6392567734032313,0.5819130199230709,0.5563653110481503,0.5636196553911326,0.599873224501732,0.6335364562672385,0.6455498517366784,0.5968591059570056,0.5526800231686164,0.5109100859089799,0.4680068015721095,0.4163804694321396,0.30461334782073335,0.17100308975798617,0.04694063548831018,0.0,0.011468947343908464,0.10355544622790758,0.23647537423657372,0.3670236930512605,0.4460519845981348,0.49353555604183885,0.5525240114056729,0.6212726035058687,0.6784093346554361,0.7083983439255581,0.6911303733080496,0.6626478466320815,0.6261568991156872,0.6164671841530076,0.6016001600427137,0.5941853250580258,0.6024148555943949,0.6039367108682554,0.6214108223248602,0.6066649686726815,0.5332396438762625,0.46726213471857436,0.4006316108454495,0.4212579400968206,0.5027808607455957,0.5763397043997975,0.6041088999626556,0.5895262580764462,0.6140397893530252,0.6436486123510696,0.7367864522344414,0.7336924369262521,0.6496326032267015,0.5933798965552364,0.5818892219117822,0.563197219630382,0.5522550238209232,0.5184250187764268,0.48029223475876703,0.44215388343708417,0.4557378161416952,0.49423234418340156,0.5478249000369972,0.6066312950322414,0.646081035585718,0.6250989512099854,0.5981195724664685,0.5904545369393794,0.5789947539796203,0.5573395229129896,0.5680698982783845,0.5590322736314546,0.5560487069779794,0.5625583288911349,0.5437864498845557,0.47312025768629073,0.399392714121924,0.3472440632048892,0.369165013631934,0.464451584124038,0.547433982680781,0.592257420065323,0.5677835723053479,0.610839952372022,0.6556998665353362,0.752517747782389,0.7755745649001584,0.6807944329045847,0.6204183116145034,0.5923860472992106,0.5622987180754606,0.5330736841497741,0.4846905674909223,0.43717593317982706,0.4117703236237644,0.42621246890561304,0.45949639407203025,0.5189045984899665,0.5830809152967582,0.6220498810826194,0.6255060442953897,0.6077909229163603,0.5932460002724995,0.5787048761106313,0.5705788354755219,0.5660388443497513,0.5682106223790453,0.5740667895753178,0.5678448520605328,0.561772862279903,0.4948147288536502,0.42568721152630706,0.39444815748890916,0.44475365391210797,0.5363919562240067,0.6078459888950243,0.6117340138770051,0.6128488305138564,0.6340105877235174,0.7191648733624127,0.7930402006851489,0.7287433079617136,0.6427857009119751,0.5978003533292942,0.568208265975275,0.5529980886469033,0.5227407868534164,0.501074704348091,0.46396686537838594,0.46265440090269117,0.5065365747517356,0.567042628500972,0.6241520676323882,0.6873125108317,0.7033863036389292,0.6722995914668095,0.643396799915974,0.622865250459637,0.6037149980543357,0.5897608493339459,0.6002923199020223,0.6115394111114383,0.6062083533811338,0.6231592531042489
0,1,2,3,4,5,6,7,8,9,10,11,12,13,14,15,16,17,18,19,20,21,22,23,24,25,26,27,28,29,30,31,32,33,34,35,36,37,38,39,40,41,42,43,44,45,46,47,48,49,50,51,52,53,54,55,56,57,58,59,60,61,62,63,64,65,66,67,68,69,70,71,72,73,74,75,76,77,78,79,80,81,82,83,84,85,86,87,88,89,90,91,92,93,94,95,96,97,98,99,100,101,102,103,104,105,106,107,108,109,110,111,112,113,114,115,116,117,118,119,120,121,122,123,124,125,126,127,128,129,130,131,132,133,134,135,136,137,138,139,140,141,142,143,144,145,146,147,148,149,150,151,152,153,154,155,156,157,158,159,160,161,162,163,164,165,166,167,168,169,170,171,172,173,174,175,176,177,178,179,180,181,182,183,184,185,186,187,188,189,190,191,192,193,194,195,196,197,198,199,200,201,202,203,204,205,206,207,208,209,210,211,212,213,214,215,216,217,218,219,220,221,222,223,224,225,226,227,228,229,230,231,232,233,234,235,236,237,238,239,240,241,242,243,244,245,246,247,248,249,250,251,252,253,254
0.7043873008645498,0.6864397767516177,0.6837768476684705,0.6667420040470251,0.6675988072392514,0.6844711084905244,0.7008787221266628,0.7354237087251558,0.7690885390989894,0.7967101831493562,0.7654818567768835,0.7001124044123888,0.6422629396167672,0.5848942589557478,0.5464571411305932,0.5667413109312514,0.5918367607403527,0.6149654143121741,0.6507781564654267,0.6693543098125536,0.7257698658416167,0.8182440599510983,0.9133820297318653,0.9664709068367845,0.9075887454816689,0.8186781215666938,0.7611676288119194,0.7089888957493269,0.677989437276656,0.6137631334005169,0.5323199523871378,0.5073396827558714,0.5798967467380045,0.6492361744475179,0.6596414529185788,0.651159526639129,0.6601004095999903,0.659994629607787,0.6481099548460074,0.6588559903705531,0.6719751761935182,0.6990815146966494,0.7249594649839182,0.7078717803448056,0.6716581566441251,0.6134356528421745,0.5530010281139424,0.5014521135690715,0.4963149461770957,0.5320866450162263,0.5825995605086871,0.6216448596967821,0.6526398612435931,0.6693566115033187,0.7257698658416176,0.8183050777306295,0.9182993633725269,1.0,0.9810738079853545,0.8750656306453832,0.788971727658093,0.7298669502585682,0.6844632917519808,0.6514413156682703,0.580959343955691,0.48872192609994025,0.46711700456286076,0.5401759432636575,0.6142935320667444,0.6360616853077508,0.6364371245567857,0.6364343051989731,0.6341525274354392,0.6310603081798991,0.6575869904962559,0.6660938800356595,0.6880896783571906,0.7207820849664266,0.7300144936304225,0.695608202292247,0.6347636120418425,0.5852741009945706,0.544962826326373,0.5422808031015207,0.5720685629399793,0.6091385523659505,0.634605793234218,0.651839884622754,0.6840404457076925,0.7540541468884134,0.8490864128396973,0.9357650070554788,0.9520012647629166,0.8591857450460552,0.7816520371581337,0.7327800286509571,0.6932893867786278,0.6537381695113806,0.5815705052397053,0.5238555843190791,0.5618866166934455,0.6305658960600646,0.6985406181695328,0.6948121112751915,0.6775347855755918,0.6779788782305758,0.6839339740004347,0.6795121589574338,0.6887439599154135,0.7104737306568927,0.7458411011299395,0.7630247280481948,0.7804131212766388,0.7695335745087837,0.7093081301735698,0.6392567734032313,0.5819130199230709,0.5563653110481503,0.5636196553911326,0.599873224501732,0.6335364562672385,0.6455498517366784,0.5968591059570056,0.5526800231686164,0.5109100859089799,0.4680068015721095,0.4163804694321396,0.30461334782073335,0.17100308975798617,0.04694063548831018,0.0,0.011468947343908464,0.10355544622790758,0.23647537423657372,0.3670236930512605,0.4460519845981348,0.49353555604183885,0.5525240114056729,0.6212726035058687,0.6784093346554361,0.7083983439255581,0.6911303733080496,0.6626478466320815,0.6261568991156872,0.6164671841530076,0.6016001600427137,0.5941853250580258,0.6024148555943949,0.6039367108682554,0.6214108223248602,0.6066649686726815,0.5332396438762625,0.46726213471857436,0.4006316108454495,0.4212579400968206,0.5027808607455957,0.5763397043997975,0.6041088999626556,0.5895262580764462,0.6140397893530252,0.6436486123510696,0.7367864522344414,0.7336924369262521,0.6496326032267015,0.5933798965552364,0.5818892219117822,0.563197219630382,0.5522550238209232,0.5184250187764268,0.48029223475876703,0.44215388343708417,0.4557378161416952,0.49423234418340156,0.5478249000369972,0.6066312950322414,0.646081035585718,0.6250989512099854,0.5981195724664685,0.5904545369393794,0.5789947539796203,0.5573395229129896,0.5680698982783845,0.5590322736314546,0.5560487069779794,0.5625583288911349,0.5437864498845557,0.47312025768629073,0.399392714121924,0.3472440632048892,0.369165013631934,0.464451584124038,0.547433982680781,0.592257420065323,0.5677835723053479,0.610839952372022,0.6556998665353362,0.752517747782389,0.7755745649001584,0.6807944329045847,0.6204183116145034,0.5923860472992106,0.5622987180754606,0.5330736841497741,0.4846905674909223,0.43717593317982706,0.4117703236237644,0.42621246890561304,0.45949639407203025,0.5189045984899665,0.5830809152967582,0.6220498810826194,0.6255060442953897,0.6077909229163603,0.5932460002724995,0.5787048761106313,0.5705788354755219,0.5660388443497513,0.5682106223790453,0.5740667895753178,0.5678448520605328,0.561772862279903,0.4948147288536502,0.42568721152630706,0.39444815748890916,0.44475365391210797,0.5363919562240067,0.6078459888950243,0.6117340138770051,0.6128488305138564,0.6340105877235174,0.7191648733624127,0.7930402006851489,0.7287433079617136,0.6427857009119751,0.5978003533292942,0.568208265975275,0.5529980886469033,0.5227407868534164,0.501074704348091,0.46396686537838594,0.46265440090269117,0.5065365747517356,0.567042628500972,0.6241520676323882,0.6873125108317,0.7033863036389292,0.6722995914668095,0.643396799915974,0.622865250459637,0.6037149980543357,0.5897608493339459,0.6002923199020223,0.6115394111114383,0.6062083533811338,0.6231592531042489
0,1,2,3,4,5,6,7,8,9,10,11,12,13,14,15,16,17,18,19,20,21,22,23,24,25,26,27,28,29,30,31,32,33,34,35,36,37,38,39,40,41,42,43,44,45,46,47,48,49,50,51,52,53,54,55,56,57,58,59,60,61,62,63,64,65,66,67,68,69,70,71,72,73,74,75,76,77,78,79,80,81,82,83,84,85,86,87,88,89,90,91,92,93,94,95,96,97,98,99,100,101,102,103,104,105,106,107,108,109,110,111,112,113,114,115,116,117,118,119,120,121,122,123,124,125,126,127,128,129,130,131,132,133,134,135,136,137,138,139,140,141,142,143,144,145,146,147,148,149,150,151,152,153,154,155,156,157,158,159,160,161,162,163,164,165,166,167,168,169,170,171,172,173,174,175,176,177,178,179,180,181,182,183,184,185,186,187,188,189,190,191,192,193,194,195,196,197,198,199,200,201,202,203,204,205,206,207,208,209,210,211,212,213,214,215,216,217,218,219,220,221,222,223,224,225,226,227,228,229,230,231,232,233,234,235,236,237,238,239,240,241,242,243,244,245,246,247,248,249,250,251,252,253,254
0.3473289901437986,0.34823819550923263,0.362409756524777,0.3523018262951898,0.3585378508968238,0.3451449272318112,0.3569378705588946,0.4116771070774088,0.4717350203594042,0.5268579680832595,0.5561054775338805,0.5375949118087737,0.506078101230929,0.4835925002366337,0.5059547696173543,0.5106010233095715,0.523411366943968,0.5488361864080606,0.5864044330142426,0.6591110084984897,0.7474820963791733,0.8370782211852847,0.930096549548447,1.0,0.9813488545835072,0.892900396910314,0.8312018593507804,0.7491081958368437,0.6572741867952798,0.6037789044174668,0.6105586831990082,0.5881746584339282,0.5650212222726125,0.5683899315037477,0.575464591985376,0.60818706541707,0.6291603002426709,0.6318714115204616,0.6318767357816539,0.6301615261631164,0.6073971973594037,0.5965667673115251,0.5895962396953802,0.5723957219420845,0.5538828791901715,0.5625272177995853,0.5622397535429506,0.5263605764756307,0.5163566322001549,0.5304215124932314,0.5756005066961656,0.5957537272967715,0.5799549164624436,0.5473380827678924,0.5188232932744876,0.4941698316311509,0.4760218200149917,0.46681112955819204,0.4777559282700423,0.5169947439437936,0.5538922946103444,0.6314634014877036,0.7164391957414322,0.8064083378088509,0.8864704835888979,0.8903723755053758,0.8213128102217353,0.750676613977995,0.6625122772399781,0.5662184652904951,0.48226835365521126,0.4494521038813084,0.4553717170734486,0.42308060481364906,0.3833221284652444,0.362050678198516,0.3866642575228143,0.43155573055752194,0.4496330354377669,0.44170183938932706,0.4490791455874037,0.4410410246394809,0.44992553397633017,0.4493370373019796,0.45310196459267305,0.4504288018823539,0.4508997142572735,0.4494180505449381,0.45144634972743614,0.42758873176210876,0.4183807175480103,0.4533896054351514,0.5063505333141891,0.5527549970758918,0.5647704128155238,0.5229536753894388,0.48319667899891305,0.45684776860538845,0.4248025808295144,0.43109954010820317,0.4001159304883841,0.40197702062577223,0.43102448103709357,0.44173085398341927,0.49843174947291935,0.5828306647166865,0.6709052032924419,0.7634006702100113,0.8282505539408995,0.7941005359592483,0.7157657492607452,0.6496488920866623,0.5657823256880392,0.4775878823826125,0.4398624962221862,0.4574880443707148,0.45576643025372565,0.4112638151217989,0.39460135082556036,0.39013088230485504,0.3952612694417841,0.43101936152143816,0.4216333026262835,0.3814250800673378,0.32854546411489194,0.24776599245173792,0.14244445657026672,0.041502916696573244,0.0,0.021373813803408748,0.11141268963110917,0.2173317063526503,0.29825958357423277,0.2780131975625886,0.17991811151019554,0.07471976830738702,0.006267153212810683,0.0026709360469969745,0.05897362776671056,0.16272130641175586,0.26490334096446677,0.32062233564973885,0.3536782129381888,0.3839653945329693,0.38894321239015284,0.37466143053276024,0.39870973972644697,0.4794795750770331,0.560462625296068,0.6246749185115403,0.6599204629265834,0.5832542855916008,0.4900422695866493,0.41277902406389444,0.3779311618319996,0.35517217462358364,0.3307836365543806,0.3338362783912916,0.3380998652343772,0.3701638252861197,0.3920356432677825,0.42862532938453146,0.4649304927445561,0.49345268183295143,0.4549117424660998,0.4056785380211667,0.358322116633746,0.35753420371760436,0.36712288068437937,0.38633228473109904,0.3717376696632235,0.3699128263709279,0.3725820007452185,0.379899286549497,0.38386936701301444,0.3791778561974106,0.36498404619717295,0.37713107932476797,0.3800781838528051,0.36331649398358135,0.34865358271660485,0.3249395256697487,0.292401461233728,0.2944353091135943,0.3384500570104967,0.38099236321248897,0.4038890895901255,0.39100816825966556,0.4014126105626712,0.4779802012509813,0.5705438890730736,0.662471705786158,0.7306568479149127,0.7061558001297619,0.6242597927156917,0.5420064944795429,0.47972544659173755,0.45512380969353883,0.4196389178911093,0.40762819187403787,0.4133267607729292,0.44024969906714384,0.4625808533882032,0.48942393693599806,0.5258632067150004,0.5421636921562976,0.5125178726435036,0.46625029084488867,0.4512119389781124,0.46533685642206013,0.4906730608808938,0.48803444053587697,0.505749753440718,0.5232820365990656,0.5387064296295492,0.5551508022707998,0.5639211604626073,0.5761079180062816,0.5859539560345817,0.5734951185064423,0.5587902288423372,0.5204275557574212,0.5107580603855006,0.4934296238407203,0.5104906461794791,0.5315027522618414,0.5508167420274965,0.5298608008500683,0.5483623866922316,0.6272274217820115,0.716098375877416,0.7903167086542409,0.8391121823627761,0.7738490922372696,0.6828991478528548,0.5987826863101802,0.5399064279913492,0.5017211428334667,0.47884503705048687,0.44925302280784507,0.44802224397398094,0.43834106525188377,0.42375934365648105,0.44836755031423703,0.4824472533650961,0.4892089992009425,0.44249857176196317,0.37938123976537463,0.31160525001277906,0.2898288266080318,0.28053920930441656,0.2879516050904063,0.27736139883770683,0.2843309700300227,0.2732972571439589
0,1,2,3,4,5,6,7,8,9,10,11,12,13,14,15,16,17,18,19,20,21,22,23,24,25,26,27,28,29,30,31,32,33,34,35,36,37,38,39,40,41,42,43,44,45,46,47,48,49,50,51,52,53,54,55,56,57,58,59,60,61,62,63,64,65,66,67,68,69,70,71,72,73,74,75,76,77,78,79,80,81,82,83,84,85,86,87,88,89,90,91,92,93,94,95,96,97,98,99,100,101,102,103,104,105,106,107,108,109,110,111,112,113,114,115,116,117,118,119,120,121,122,123,124,125,126,127,128,129,130,131,132,133,134,135,136,137,138,139,140,141,142,143,144,145,146,147,148,149,150,151,152,153,154,155,156,157,158,159,160,161,162,163,164,165,166,167,168,169,170,171,172,173,174,175,176,177,178,179,180,181,182,183,184,185,186,187,188,189,190,191,192,193,194,195,196,197,198,199,200,201,202,203,204,205,206,207,208,209,210,211,212,213,214,215,216,217,218,219,220,221,222,223,224,225,226,227,228,229,230,231,232,233,234,235,236,237,238,239,240,241,242,243,244,245,246,247,248,249,250,251,252,253,254
0.3473289901437986,0.34823819550923263,0.362409756524777,0.3523018262951898,0.3585378508968238,0.3451449272318112,0.3569378705588946,0.4116771070774088,0.4717350203594042,0.5268579680832595,0.5561054775338805,0.5375949118087737,0.506078101230929,0.4835925002366337,0.5059547696173543,0.5106010233095715,0.523411366943968,0.5488361864080606,0.5864044330142426,0.6591110084984897,0.7474820963791733,0.8370782211852847,0.930096549548447,1.0,0.9813488545835072,0.892900396910314,0.8312018593507804,0.7491081958368437,0.6572741867952798,0.6037789044174668,0.6105586831990082,0.5881746584339282,0.5650212222726125,0.5683899315037477,0.575464591985376,0.60818706541707,0.6291603002426709,0.6318714115204616,0.6318767357816539,0.6301615261631164,0.6073971973594037,0.5965667673115251,0.5895962396953802,0.5723957219420845,0.5538828791901715,0.5625272177995853,0.5622397535429506,0.5263605764756307,0.5163566322001549,0.5304215124932314,0.5756005066961656,0.5957537272967715,0.5799549164624436,0.5473380827678924,0.5188232932744876,0.4941698316311509,0.4760218200149917,0.46681112955819204,0.4777559282700423,0.5169947439437936,0.5538922946103444,0.6314634014877036,0.7164391957414322,0.8064083378088509,0.8864704835888979,0.8903723755053758,0.8213128102217353,0.750676613977995,0.6625122772399781,0.5662184652904951,0.48226835365521126,0.4494521038813084,0.4553717170734486,0.42308060481364906,0.3833221284652444,0.362050678198516,0.3866642575228143,0.43155573055752194,0.4496330354377669,0.44170183938932706,0.4490791455874037,0.4410410246394809,0.44992553397633017,0.4493370373019796,0.45310196459267305,0.4504288018823539,0.4508997142572735,0.4494180505449381,0.45144634972743614,0.42758873176210876,0.4183807175480103,0.4533896054351514,0.5063505333141891,0.5527549970758918,0.5647704128155238,0.5229536753894388,0.48319667899891305,0.45684776860538845,0.4248025808295144,0.43109954010820317,0.4001159304883841,0.40197702062577223,0.43102448103709357,0.44173085398341927,0.49843174947291935,0.5828306647166865,0.6709052032924419,0.7634006702100113,0.8282505539408995,0.7941005359592483,0.7157657492607452,0.6496488920866623,0.5657823256880392,0.4775878823826125,0.4398624962221862,0.4574880443707148,0.45576643025372565,0.4112638151217989,0.39460135082556036,0.39013088230485504,0.3952612694417841,0.43101936152143816,0.4216333026262835,0.3814250800673378,0.32854546411489194,0.24776599245173792,0.14244445657026672,0.041502916696573244,0.0,0.021373813803408748,0.11141268963110917,0.2173317063526503,0.29825958357423277,0.2780131975625886,0.17991811151019554,0.07471976830738702,0.006267153212810683,0.0026709360469969745,0.05897362776671056,0.16272130641175586,0.26490334096446677,0.32062233564973885,0.3536782129381888,0.3839653945329693,0.38894321239015284,0.37466143053276024,0.39870973972644697,0.4794795750770331,0.560462625296068,0.6246749185115403,0.6599204629265834,0.5832542855916008,0.4900422695866493,0.41277902406389444,0.3779311618319996,0.35517217462358364,0.3307836365543806,0.3338362783912916,0.3380998652343772,0.3701638252861197,0.3920356432677825,0.42862532938453146,0.4649304927445561,0.49345268183295143,0.4549117424660998,0.4056785380211667,0.358322116633746,0.35753420371760436,0.36712288068437937,0.38633228473109904,0.3717376696632235,0.3699128263709279,0.3725820007452185,0.379899286549497,0.38386936701301444,0.3791778561974106,0.36498404619717295,0.37713107932476797,0.3800781838528051,0.36331649398358135,0.34865358271660485,0.3249395256697487,0.292401461233728,0.2944353091135943,0.3384500570104967,0.38099236321248897,0.4038890895901255,0.39100816825966556,0.4014126105626712,0.4779802012509813,0.5705438890730736,0.662471705786158,0.7306568479149127,0.7061558001297619,0.6242597927156917,0.5420064944795429,0.47972544659173755,0.45512380969353883,0.4196389178911093,0.40762819187403787,0.4133267607729292,0.44024969906714384,0.4625808533882032,0.48942393693599806,0.5258632067150004,0.5421636921562976,0.5125178726435036,0.46625029084488867,0.4512119389781124,0.46533685642206013,0.4906730608808938,0.48803444053587697,0.505749753440718,0.5232820365990656,0.5387064296295492,0.5551508022707998,0.5639211604626073,0.5761079180062816,0.5859539560345817,0.5734951185064423,0.5587902288423372,0.5204275557574212,0.5107580603855006,0.4934296238407203,0.5104906461794791,0.5315027522618414,0.5508167420274965,0.5298608008500683,0.5483623866922316,0.6272274217820115,0.716098375877416,0.7903167086542409,0.8391121823627761,0.7738490922372696,0.6828991478528548,0.5987826863101802,0.5399064279913492,0.5017211428334667,0.47884503705048687,0.44925302280784507,0.44802224397398094,0.43834106525188377,0.42375934365648105,0.44836755031423703,0.4824472533650961,0.4892089992009425,0.44249857176196317,0.37938123976537463,0.31160525001277906,0.2898288266080318,0.28053920930441656,0.2879516050904063,0.27736139883770683,0.2843309700300227,0.2732972571439589
0,1,2,3,4,5,6,7,8,9,10,11,12,13,14,15,16,17,18,19,20,21,22,23,24,25,26,27,28,29,30,31,32,33,34,35,36,37,38,39,40,41,42,43,44,45,46,47,48,49,50,51,52,53,54,55,56,57,58,59,60,61,62,63,64,65,66,67,68,69,70,71,72,73,74,75,76,77,78,79,80,81,82,83,84,85,86,87,88,89,90,91,92,93,94,95,96,97,98,99,100,101,102,103,104,105,106,107,108,109,110,111,112,113,114,115,116,117,118,119,120,121,122,123,124,125,126,127,128,129,130,131,132,133,134,135,136,137,138,139,140,141,142,143,144,145,146,147,148,149,150,151,152,153,154,155,156,157,158,159,160,161,162,163,164,165,166,167,168,169,170,171,172,173,174,175,176,177,178,179,180,181,182,183,184,185,186,187,188,189,190,191,192,193,194,195,196,197,198,199,200,201,202,203,204,205,206,207,208,209,210,211,212,213,214,215,216,217,218,219,220,221,222,223,224,225,226,227,228,229,230,231,232,233,234,235,236,237,238,239,240,241,242,243,244,245,246,247,248,249,250,251,252,253,254
0.8454466715354094,0.8739951180687586,0.9077965129210503,0.9108543232235862,0.9039886106889501,0.8847728343995587,0.8681759721084394,0.8910634979752765,0.9136277065303555,0.9018499136040865,0.9054172724467806,0.9348096829123942,0.861229707237527,0.733828004355789,0.6115310148242203,0.629161557595098,0.7752778315118283,0.9011298065087265,0.9400225673072256,0.9222330140206974,0.8913414559738699,0.8281193932661659,0.7362572597493626,0.6893098124044221,0.7713324430594239,0.8595547312883709,0.8692780720495508,0.8802745891128061,0.9068823241922201,0.9199995130503837,0.8939477049740483,0.8726308481323479,0.8577598132130624,0.8831130735120323,0.8821804773559663,0.9218264361192179,0.9316300997526126,0.9231859018519146,0.8878920316682346,0.8049805756862525,0.6872977084530247,0.5488461249621173,0.5064845449962894,0.6309225606454247,0.7797720712601457,0.912843108698985,1.0,0.9583689721877371,0.9292113050023292,0.8769468119560409,0.7844894366675312,0.6897232147801273,0.727755820494119,0.8298408661992163,0.8931136320572137,0.8980225637653669,0.9114505889340694,0.9238999887878672,0.8962150244236926,0.8542581683332902,0.8603272066470846,0.8564190789129178,0.8862265147374053,0.9081476805641651,0.9314046157825544,0.923108702868717,0.8689611685511207,0.7765469341394651,0.6446479826099694,0.5086903483935155,0.40536642560549474,0.4993734939666741,0.649966682138504,0.7881944998513708,0.9276444234424059,0.9911587525970513,0.9593927320223976,0.9278665755682911,0.8583677590722645,0.7525249378513572,0.7025078699053213,0.7881182905753308,0.8820491620410298,0.9005479365982296,0.9057824506875041,0.9106393888851518,0.8975970952552257,0.8689661600231369,0.865128149342993,0.8764272370060415,0.8754478458490156,0.9001997267974788,0.9272665893094683,0.9122333560762121,0.8554842336412767,0.757413400651755,0.6289450734614928,0.5060914396997429,0.5453729756627248,0.6910139630999956,0.8442300194315737,0.9428844203293147,0.9355490155918083,0.9038558910465353,0.8397464563998174,0.7454592686418198,0.6797265261911067,0.751228325367236,0.8447102214312237,0.8857358070854144,0.8896744734978697,0.9038084571404656,0.9061553461902028,0.8943230989920048,0.869282695398994,0.8503679114362632,0.8532520255244238,0.8292870237978822,0.7680408396179672,0.7499385385993911,0.7546082706218984,0.7809195829008706,0.7953546815692727,0.8124090034864215,0.8196406401044505,0.8096454244900713,0.7941453596063233,0.7705458290364251,0.6760617147212211,0.5999041269611474,0.599467674110369,0.6874225016618856,0.7783165400867742,0.8319686343927657,0.8535465418273609,0.7600898858276572,0.6163752387540113,0.46382853082923825,0.3257845568711435,0.17675774773756237,0.050513489158491076,0.042989305947739975,0.15519845111474906,0.27172904511435547,0.4072334677522851,0.5557319342529934,0.6866668496662358,0.7872121476758318,0.8355334170961921,0.8290263676103296,0.8076805791756985,0.7876823886211834,0.7780464149109299,0.7855323760798769,0.7965751579037885,0.8293715286962824,0.8299071182230988,0.8073490767945684,0.7964959341314457,0.7286682852231121,0.6201582844799378,0.5676064625816752,0.6323725183656959,0.7361345045838608,0.8254709887793439,0.8640525374104904,0.858046044667637,0.7436931300266836,0.6002026464254224,0.4558744408099038,0.301289072612664,0.16448124094041328,0.061189736641121595,0.0,0.07987630930187617,0.23169589461295592,0.3832030220877036,0.5213786438985237,0.6635825471794443,0.7756014286568265,0.835424468806341,0.8445493012178904,0.819501435673005,0.7978456293220231,0.7805879191193594,0.7726167833162374,0.7569454255421735,0.7669072231307914,0.8130811315137865,0.8229582567389033,0.813529596992141,0.807950472163665,0.7655377478069214,0.6664626687183763,0.5947081444561886,0.6187995572996465,0.7127055549728212,0.8122420717616321,0.8634892797703695,0.8581675993021922,0.7668839551912008,0.6129892171543023,0.46247662437271364,0.3236782334181445,0.17576376773904867,0.04945513131825985,0.006424479144681694,0.10493728265188684,0.24907726214795067,0.38758526808375215,0.5394838742409576,0.6747163369623728,0.7868158287572156,0.8209611136691657,0.8295974055213353,0.8014337302556771,0.7890246085760841,0.7788155047510901,0.7701925320524352,0.7972914610373345,0.7927080793468861,0.8315019524465246,0.8105331415954424,0.7954642058493757,0.7871145210544519,0.7706054691693796,0.6865034214165915,0.5947528605215116,0.5717724528135202,0.6622874216445442,0.7580496975302693,0.8160516098541177,0.8344389534787742,0.7616890097700897,0.6176769052252729,0.47952444184527065,0.328878450998499,0.19316922748273901,0.09468834638341983,0.15425649088346605,0.29098639045259,0.43692455671335173,0.5805167763911809,0.7139032411415238,0.7890299100987863,0.8031540156188086,0.7982002979902179,0.7869773348390003,0.7770583289322817,0.7923701741130973,0.8194888245495595,0.8318086559571767,0.814923548162179,0.7768302972566277,0.7581688896039993
0,1,2,3,4,5,6,7,8,9,10,11,12,13,14,15,16,17,18,19,20,21,22,23,24,25,26,27,28,29,30,31,32,33,34,35,36,37,38,39,40,41,42,43,44,45,46,47,48,49,50,51,52,53,54,55,56,57,58,59,60,61,62,63,64,65,66,67,68,69,70,71,72,73,74,75,76,77,78,79,80,81,82,83,84,85,86,87,88,89,90,91,92,93,94,95,96,97,98,99,100,101,102,103,104,105,106,107,108,109,110,111,112,113,114,115,116,117,118,119,120,121,122,123,124,125,126,127,128,129,130,131,132,133,134,135,136,137,138,139,140,141,142,143,144,145,146,147,148,149,150,151,152,153,154,155,156,157,158,159,160,161,162,163,164,165,166,167,168,169,170,171,172,173,174,175,176,177,178,179,180,181,182,183,184,185,186,187,188,189,190,191,192,193,194,195,196,197,198,199,200,201,202,203,204,205,206,207,208,209,210,211,212,213,214,215,216,217,218,219,220,221,222,223,224,225,226,227,228,229,230,231,232,233,234,235,236,237,238,239,240,241,242,243,244,245,246,247,248,249,250,251,252,253,254
0.8454466715354094,0.8739951180687586,0.9077965129210503,0.9108543232235862,0.9039886106889501,0.8847728343995587,0.8681759721084394,0.8910634979752765,0.9136277065303555,0.9018499136040865,0.9054172724467806,0.9348096829123942,0.861229707237527,0.733828004355789,0.6115310148242203,0.629161557595098,0.7752778315118283,0.9011298065087265,0.9400225673072256,0.9222330140206974,0.8913414559738699,0.8281193932661659,0.7362572597493626,0.6893098124044221,0.7713324430594239,0.8595547312883709,0.8692780720495508,0.8802745891128061,0.9068823241922201,0.9199995130503837,0.8939477049740483,0.8726308481323479,0.8577598132130624,0.8831130735120323,0.8821804773559663,0.9218264361192179,0.9316300997526126,0.9231859018519146,0.8878920316682346,0.8049805756862525,0.6872977084530247,0.5488461249621173,0.5064845449962894,0.6309225606454247,0.7797720712601457,0.912843108698985,1.0,0.9583689721877371,0.9292113050023292,0.8769468119560409,0.7844894366675312,0.6897232147801273,0.727755820494119,0.8298408661992163,0.8931136320572137,0.8980225637653669,0.9114505889340694,0.9238999887878672,0.8962150244236926,0.8542581683332902,0.8603272066470846,0.8564190789129178,0.8862265147374053,0.9081476805641651,0.9314046157825544,0.923108702868717,0.8689611685511207,0.7765469341394651,0.6446479826099694,0.5086903483935155,0.40536642560549474,0.4993734939666741,0.649966682138504,0.7881944998513708,0.9276444234424059,0.9911587525970513,0.9593927320223976,0.9278665755682911,0.8583677590722645,0.7525249378513572,0.7025078699053213,0.7881182905753308,0.8820491620410298,0.9005479365982296,0.9057824506875041,0.9106393888851518,0.8975970952552257,0.8689661600231369,0.865128149342993,0.8764272370060415,0.8754478458490156,0.9001997267974788,0.9272665893094683,0.9122333560762121,0.8554842336412767,0.757413400651755,0.6289450734614928,0.5060914396997429,0.5453729756627248,0.6910139630999956,0.8442300194315737,0.9428844203293147,0.9355490155918083,0.9038558910465353,0.8397464563998174,0.7454592686418198,0.6797265261911067,0.751228325367236,0.8447102214312237,0.8857358070854144,0.8896744734978697,0.9038084571404656,0.9061553461902028,0.8943230989920048,0.869282695398994,0.8503679114362632,0.8532520255244238,0.8292870237978822,0.7680408396179672,0.7499385385993911,0.7546082706218984,0.7809195829008706,0.7953546815692727,0.8124090034864215,0.8196406401044505,0.8096454244900713,0.7941453596063233,0.7705458290364251,0.6760617147212211,0.5999041269611474,0.599467674110369,0.6874225016618856,0.7783165400867742,0.8319686343927657,0.8535465418273609,0.7600898858276572,0.6163752387540113,0.46382853082923825,0.3257845568711435,0.17675774773756237,0.050513489158491076,0.042989305947739975,0.15519845111474906,0.27172904511435547,0.4072334677522851,0.5557319342529934,0.6866668496662358,0.7872121476758318,0.8355334170961921,0.8290263676103296,0.8076805791756985,0.7876823886211834,0.7780464149109299,0.7855323760798769,0.7965751579037885,0.8293715286962824,0.8299071182230988,0.8073490767945684,0.7964959341314457,0.7286682852231121,0.6201582844799378,0.5676064625816752,0.6323725183656959,0.7361345045838608,0.8254709887793439,0.8640525374104904,0.858046044667637,0.7436931300266836,0.6002026464254224,0.4558744408099038,0.301289072612664,0.16448124094041328,0.061189736641121595,0.0,0.07987630930187617,0.23169589461295592,0.3832030220877036,0.5213786438985237,0.6635825471794443,0.7756014286568265,0.835424468806341,0.8445493012178904,0.819501435673005,0.7978456293220231,0.7805879191193594,0.7726167833162374,0.7569454255421735,0.7669072231307914,0.8130811315137865,0.8229582567389033,0.813529596992141,0.807950472163665,0.7655377478069214,0.6664626687183763,0.5947081444561886,0.6187995572996465,0.7127055549728212,0.8122420717616321,0.8634892797703695,0.8581675993021922,0.7668839551912008,0.6129892171543023,0.46247662437271364,0.3236782334181445,0.17576376773904867,0.04945513131825985,0.006424479144681694,0.10493728265188684,0.24907726214795067,0.38758526808375215,0.5394838742409576,0.6747163369623728,0.7868158287572156,0.8209611136691657,0.8295974055213353,0.8014337302556771,0.7890246085760841,0.7788155047510901,0.7701925320524352,0.7972914610373345,0.7927080793468861,0.8315019524465246,0.8105331415954424,0.7954642058493757,0.7871145210544519,0.7706054691693796,0.6865034214165915,0.5947528605215116,0.5717724528135202,0.6622874216445442,0.7580496975302693,0.8160516098541177,0.8344389534787742,0.7616890097700897,0.6176769052252729,0.47952444184527065,0.328878450998499,0.19316922748273901,0.09468834638341983,0.15425649088346605,0.29098639045259,0.43692455671335173,0.5805167763911809,0.7139032411415238,0.7890299100987863,0.8031540156188086,0.7982002979902179,0.7869773348390003,0.7770583289322817,0.7923701741130973,0.8194888245495595,0.8318086559571767,0.814923548162179,0.7768302972566277,0.7581688896039993
0,1,2,3,4,5,6,7,8,9,10,11,12,13,14,15,16,17,18,19,20,21,22,23,24,25,26,27,28,29,30,31,32,33,34,35,36,37,38,39,40,41,42,43,44,45,46,47,48,49,50,51,52,53,54,55,56,57,58,59,60,61,62,63,64,65,66,67,68,69,70,71,72,73,74,75,76,77,78,79,80,81,82,83,84,85,86,87,88,89,90,91,92,93,94,95,96,97,98,99,100,101,102,103,104,105,106,107,108,109,110,111,112,113,114,115,116,117,118,119,120,121,122,123,124,125,126,127,128,129,130,131,132,133,134,135,136,137,138,139,140,141,142,143,144,145,146,147,148,149,150,151,152,153,154,155,156,157,158,159,160,161,162,163,164,165,166,167,168,169,170,171,172,173,174,175,176,177,178,179,180,181,182,183,184,185,186,187,188,189,190,191,192,193,194,195,196,197,198,199,200,201,202,203,204,205,206,207,208,209,210,211,212,213,214,215,216,217,218,219,220,221,222,223,224,225,226,227,228,229,230,231,232,233,234,235,236,237,238,239,240,241,242,243,244,245,246,247,248,249,250,251,252,253,254
0.9400372523900378,0.9332125166330572,0.9036944806764835,0.8483629829568897,0.7805809918445867,0.7039616332185454,0.6646735226457137,0.7123095380124169,0.7841468772446811,0.8552843842363398,0.9076062422733351,0.9379828079838402,0.9548062251250273,0.9559206214631528,0.9036210095815731,0.8221943573707646,0.7358772521725729,0.6450058069461551,0.5515753697672081,0.46020283444930854,0.4369013873783041,0.5181434305415442,0.6129497729577509,0.7065459342832485,0.7953208593661194,0.8785711912106333,0.9484375372592013,0.9531604476189046,0.908316348568152,0.8643097556342432,0.8903951549776055,0.9269373678598791,0.9236076434572946,0.9055677390810868,0.8924641062817682,0.8931787547036061,0.9011165248572355,0.9029119813649935,0.8970355602839704,0.8711693849703568,0.8190412623393113,0.7566934421092606,0.6848652156932007,0.6434400673164349,0.6914349651408893,0.7611213059645161,0.8388053339877306,0.9049370121709099,0.9521321514233101,0.9845665596616222,0.994238489134263,0.9799314362696288,0.9240986474500199,0.8366668022807682,0.7495932248203303,0.6602784592761359,0.5639785568293225,0.4707292251818791,0.37302386106593044,0.34725831060225243,0.42884952001946,0.5261795730899999,0.6190347391568298,0.7120372824626215,0.80563157696556,0.8941543706675483,0.9479954455921702,0.9270498155366838,0.8742149344732666,0.8315558510634622,0.8564610568631195,0.891446386337857,0.9096987384534423,0.910373473148443,0.8973036916002279,0.8921424556594542,0.899418870796133,0.9098351458358187,0.8909505797892947,0.8495244153325672,0.7881576389720928,0.7142572186900122,0.6432266540051481,0.6471850871500084,0.7155727915652463,0.7868551159516368,0.851458041185243,0.9077065928509434,0.9580826205294957,0.980211354999168,0.9999999999999998,0.9948908596331958,0.9348395868045736,0.8576995985982243,0.7725006356600284,0.6823386277462067,0.5878180780107114,0.5019306296219321,0.5110622362878827,0.6023542534403385,0.6959944463102898,0.7891168346903805,0.8816145610717121,0.95520908816852,0.9646081009681826,0.9218175985054846,0.8706165576445868,0.8883005234223471,0.9314506224486256,0.946670966395841,0.9470816974130918,0.9361265730727915,0.932706295530273,0.9287953477611144,0.9336344107828887,0.9193899351533923,0.8817804300255441,0.8292462636055045,0.8514045398647312,0.8823225135151191,0.888467191526759,0.891495526562629,0.8934580548512316,0.8986559207881348,0.9064445305955473,0.88509388829789,0.8390194746209401,0.8212931387954323,0.866745626278782,0.9189677163058483,0.8940617405878228,0.8052148493791107,0.7115498040033406,0.6191686388146398,0.5265266444650842,0.430243938145334,0.3357230286595654,0.23819852265229202,0.14380304330306903,0.05119496894425568,0.03712021809496968,0.11928076219757422,0.21780613467013565,0.3112362214866913,0.4109726127422626,0.5045063616078884,0.6029630237551691,0.6956872643734504,0.7848139140250563,0.8679046556164656,0.937944131762088,0.9440402909284251,0.936968768098188,0.9145948954126129,0.8588539072458317,0.7968206623766652,0.7278347435869035,0.6570108985878764,0.5960936201833125,0.5881305048503527,0.6492911850094105,0.7297830108313133,0.7963699012846264,0.8450479597302518,0.8622319978615163,0.8567332823911677,0.8488680850123891,0.8571749551695405,0.866479899119913,0.8672603557582372,0.8534810529303136,0.8195917432793918,0.7805401871525739,0.7887184494454782,0.8519593773865586,0.8791767393319354,0.8145007395855963,0.7222055647876378,0.6219117867090749,0.5269424677458576,0.4304157448891537,0.3368565508456709,0.23819155225248068,0.14603230858352556,0.06489531423119677,0.0,0.044781963753030674,0.13742339430243744,0.23406601868315202,0.3292352409556145,0.42716913031079473,0.5214285604318745,0.6225744679357657,0.7206788692471877,0.8073400460796389,0.8896139803676648,0.9478395948150893,0.9509056233386028,0.9239211488971342,0.8749961606260077,0.8092357889799595,0.733668707607591,0.6608449803103649,0.6034744346343353,0.5930148633960219,0.6503334864257422,0.7235597374882772,0.7874373451225387,0.8377720119244474,0.8541677560323002,0.8617176862854341,0.8618478335845148,0.8519607992108666,0.8533000242712336,0.8716851245712534,0.885880720534316,0.8711146763175368,0.8298298346587569,0.8215933942738569,0.8743541794053791,0.9180709066329245,0.8810721899670748,0.7922689381500532,0.6987436490357226,0.6070776322659486,0.5122419730865437,0.4108879611422973,0.3096301709932674,0.2150818128016163,0.11763409132649039,0.02804488459344423,0.007568514093947654,0.08852598059151595,0.18450332779761847,0.2803428549746143,0.37767017917242507,0.47247002499819124,0.5707139815361961,0.6625005844861875,0.7550241687267625,0.8459052012897976,0.9100784551885313,0.9167093013431817,0.8952975510173222,0.8569799992612255,0.7975711028556356,0.7261111206500626,0.6563243652491599,0.611752468550242,0.6321966364152811,0.7023840172607005,0.7745092163012934,0.8378859200837196,0.8816569161249546,0.89705351054245
0,1,2,3,4,5,6,7,8,9,10,11,12,13,14,15,16,17,18,19,20,21,22,23,24,25,26,27,28,29,30,31,32,33,34,35,36,37,38,39,40,41,42,43,44,45,46,47,48,49,50,51,52,53,54,55,56,57,58,59,60,61,62,63,64,65,66,67,68,69,70,71,72,73,74,75,76,77,78,79,80,81,82,83,84,85,86,87,88,89,90,91,92,93,94,95,96,97,98,99,100,101,102,103,104,105,106,107,108,109,110,111,112,113,114,115,116,117,118,119,120,121,122,123,124,125,126,127,128,129,130,131,132,133,134,135,136,137,138,139,140,141,142,143,144,145,146,147,148,149,150,151,152,153,154,155,156,157,158,159,160,161,162,163,164,165,166,167,168,169,170,171,172,173,174,175,176,177,178,179,180,181,182,183,184,185,186,187,188,189,190,191,192,193,194,195,196,197,198,199,200,201,202,203,204,205,206,207,208,209,210,211,212,213,214,215,216,217,218,219,220,221,222,223,224,225,226,227,228,229,230,231,232,233,234,235,236,237,238,239,240,241,242,243,244,245,246,247,248,249,250,251,252,253,254
0.3473289901437986,0.34823819550923263,0.362409756524777,0.3523018262951898,0.3585378508968238,0.3451449272318112,0.3569378705588946,0.4116771070774088,0.4717350203594042,0.5268579680832595,0.5561054775338805,0.5375949118087737,0.506078101230929,0.4835925002366337,0.5059547696173543,0.5106010233095715,0.523411366943968,0.5488361864080606,0.5864044330142426,0.6591110084984897,0.7474820963791733,0.8370782211852847,0.930096549548447,1.0,0.9813488545835072,0.892900396910314,0.8312018593507804,0.7491081958368437,0.6572741867952798,0.6037789044174668,0.6105586831990082,0.5881746584339282,0.5650212222726125,0.5683899315037477,0.575464591985376,0.60818706541707,0.6291603002426709,0.6318714115204616,0.6318767357816539,0.6301615261631164,0.6073971973594037,0.5965667673115251,0.5895962396953802,0.5723957219420845,0.5538828791901715,0.5625272177995853,0.5622397535429506,0.5263605764756307,0.5163566322001549,0.5304215124932314,0.5756005066961656,0.5957537272967715,0.5799549164624436,0.5473380827678924,0.5188232932744876,0.4941698316311509,0.4760218200149917,0.46681112955819204,0.4777559282700423,0.5169947439437936,0.5538922946103444,0.6314634014877036,0.7164391957414322,0.8064083378088509,0.8864704835888979,0.8903723755053758,0.8213128102217353,0.750676613977995,0.6625122772399781,0.5662184652904951,0.48226835365521126,0.4494521038813084,0.4553717170734486,0.42308060481364906,0.3833221284652444,0.362050678198516,0.3866642575228143,0.43155573055752194,0.4496330354377669,0.44170183938932706,0.4490791455874037,0.4410410246394809,0.44992553397633017,0.4493370373019796,0.45310196459267305,0.4504288018823539,0.4508997142572735,0.4494180505449381,0.45144634972743614,0.42758873176210876,0.4183807175480103,0.4533896054351514,0.5063505333141891,0.5527549970758918,0.5647704128155238,0.5229536753894388,0.48319667899891305,0.45684776860538845,0.4248025808295144,0.43109954010820317,0.4001159304883841,0.40197702062577223,0.43102448103709357,0.44173085398341927,0.49843174947291935,0.5828306647166865,0.6709052032924419,0.7634006702100113,0.8282505539408995,0.7941005359592483,0.7157657492607452,0.6496488920866623,0.5657823256880392,0.4775878823826125,0.4398624962221862,0.4574880443707148,0.45576643025372565,0.4112638151217989,0.39460135082556036,0.39013088230485504,0.3952612694417841,0.43101936152143816,0.4216333026262835,0.3814250800673378,0.32854546411489194,0.24776599245173792,0.14244445657026672,0.041502916696573244,0.0,0.021373813803408748,0.11141268963110917,0.2173317063526503,0.29825958357423277,0.2780131975625886,0.17991811151019554,0.07471976830738702,0.006267153212810683,0.0026709360469969745,0.05897362776671056,0.16272130641175586,0.26490334096446677,0.32062233564973885,0.3536782129381888,0.3839653945329693,0.38894321239015284,0.37466143053276024,0.39870973972644697,0.4794795750770331,0.560462625296068,0.6246749185115403,0.6599204629265834,0.5832542855916008,0.4900422695866493,0.41277902406389444,0.3779311618319996,0.35517217462358364,0.3307836365543806,0.3338362783912916,0.3380998652343772,0.3701638252861197,0.3920356432677825,0.42862532938453146,0.4649304927445561,0.49345268183295143,0.4549117424660998,0.4056785380211667,0.358322116633746,0.35753420371760436,0.36712288068437937,0.38633228473109904,0.3717376696632235,0.3699128263709279,0.3725820007452185,0.379899286549497,0.38386936701301444,0.3791778561974106,0.36498404619717295,0.37713107932476797,0.3800781838528051,0.36331649398358135,0.34865358271660485,0.3249395256697487,0.292401461233728,0.2944353091135943,0.3384500570104967,0.38099236321248897,0.4038890895901255,0.39100816825966556,0.4014126105626712,0.4779802012509813,0.5705438890730736,0.662471705786158,0.7306568479149127,0.7061558001297619,0.6242597927156917,0.5420064944795429,0.47972544659173755,0.45512380969353883,0.4196389178911093,0.40762819187403787,0.4133267607729292,0.44024969906714384,0.4625808533882032,0.48942393693599806,0.5258632067150004,0.5421636921562976,0.5125178726435036,0.46625029084488867,0.4512119389781124,0.46533685642206013,0.4906730608808938,0.48803444053587697,0.505749753440718,0.5232820365990656,0.5387064296295492,0.5551508022707998,0.5639211604626073,0.5761079180062816,0.5859539560345817,0.5734951185064423,0.5587902288423372,0.5204275557574212,0.5107580603855006,0.4934296238407203,0.5104906461794791,0.5315027522618414,0.5508167420274965,0.5298608008500683,0.5483623866922316,0.6272274217820115,0.716098375877416,0.7903167086542409,0.8391121823627761,0.7738490922372696,0.6828991478528548,0.5987826863101802,0.5399064279913492,0.5017211428334667,0.47884503705048687,0.44925302280784507,0.44802224397398094,0.43834106525188377,0.42375934365648105,0.44836755031423703,0.4824472533650961,0.4892089992009425,0.44249857176196317,0.37938123976537463,0.31160525001277906,0.2898288266080318,0.28053920930441656,0.2879516050904063,0.27736139883770683,0.2843309700300227,0.2732972571439589
0,1,2,3,4,5,6,7,8,9,10,11,12,13,14,15,16,17,18,19,20,21,22,23,24,25,26,27,28,29,30,31,32,33,34,35,36,37,38,39,40,41,42,43,44,45,46,47,48,49,50,51,52,53,54,55,56,57,58,59,60,61,62,63,64,65,66,67,68,69,70,71,72,73,74,75,76,77,78,79,80,81,82,83,84,85,86,87,88,89,90,91,92,93,94,95,96,97,98,99,100,101,102,103,104,105,106,107,108,109,110,111,112,113,114,115,116,117,118,119,120,121,122,123,124,125,126,127,128,129,130,131,132,133,134,135,136,137,138,139,140,141,142,143,144,145,146,147,148,149,150,151,152,153,154,155,156,157,158,159,160,161,162,163,164,165,166,167,168,169,170,171,172,173,174,175,176,177,178,179,180,181,182,183,184,185,186,187,188,189,190,191,192,193,194,195,196,197,198,199,200,201,202,203,204,205,206,207,208,209,210,211,212,213,214,215,216,217,218,219,220,221,222,223,224,225,226,227,228,229,230,231,232,233,234,235,236,237,238,239,240,241,242,243,244,245,246,247,248,249,250,251,252,253,254
0.3473289901437986,0.34823819550923263,0.362409756524777,0.3523018262951898,0.3585378508968238,0.3451449272318112,0.3569378705588946,0.4116771070774088,0.4717350203594042,0.5268579680832595,0.5561054775338805,0.5375949118087737,0.506078101230929,0.4835925002366337,0.5059547696173543,0.5106010233095715,0.523411366943968,0.5488361864080606,0.5864044330142426,0.6591110084984897,0.7474820963791733,0.8370782211852847,0.930096549548447,1.0,0.9813488545835072,0.892900396910314,0.8312018593507804,0.7491081958368437,0.6572741867952798,0.6037789044174668,0.6105586831990082,0.5881746584339282,0.5650212222726125,0.5683899315037477,0.575464591985376,0.60818706541707,0.6291603002426709,0.6318714115204616,0.6318767357816539,0.6301615261631164,0.6073971973594037,0.5965667673115251,0.5895962396953802,0.5723957219420845,0.5538828791901715,0.5625272177995853,0.5622397535429506,0.5263605764756307,0.5163566322001549,0.5304215124932314,0.5756005066961656,0.5957537272967715,0.5799549164624436,0.5473380827678924,0.5188232932744876,0.4941698316311509,0.4760218200149917,0.46681112955819204,0.4777559282700423,0.5169947439437936,0.5538922946103444,0.6314634014877036,0.7164391957414322,0.8064083378088509,0.8864704835888979,0.8903723755053758,0.8213128102217353,0.750676613977995,0.6625122772399781,0.5662184652904951,0.48226835365521126,0.4494521038813084,0.4553717170734486,0.42308060481364906,0.3833221284652444,0.362050678198516,0.3866642575228143,0.43155573055752194,0.4496330354377669,0.44170183938932706,0.4490791455874037,0.4410410246394809,0.44992553397633017,0.4493370373019796,0.45310196459267305,0.4504288018823539,0.4508997142572735,0.4494180505449381,0.45144634972743614,0.42758873176210876,0.4183807175480103,0.4533896054351514,0.5063505333141891,0.5527549970758918,0.5647704128155238,0.5229536753894388,0.48319667899891305,0.45684776860538845,0.4248025808295144,0.43109954010820317,0.4001159304883841,0.40197702062577223,0.43102448103709357,0.44173085398341927,0.49843174947291935,0.5828306647166865,0.6709052032924419,0.7634006702100113,0.8282505539408995,0.7941005359592483,0.7157657492607452,0.6496488920866623,0.5657823256880392,0.4775878823826125,0.4398624962221862,0.4574880443707148,0.45576643025372565,0.4112638151217989,0.39460135082556036,0.39013088230485504,0.3952612694417841,0.43101936152143816,0.4216333026262835,0.3814250800673378,0.32854546411489194,0.24776599245173792,0.14244445657026672,0.041502916696573244,0.0,0.021373813803408748,0.11141268963110917,0.2173317063526503,0.29825958357423277,0.2780131975625886,0.17991811151019554,0.07471976830738702,0.006267153212810683,0.0026709360469969745,0.05897362776671056,0.16272130641175586,0.26490334096446677,0.32062233564973885,0.3536782129381888,0.3839653945329693,0.38894321239015284,0.37466143053276024,0.39870973972644697,0.4794795750770331,0.560462625296068,0.6246749185115403,0.6599204629265834,0.5832542855916008,0.4900422695866493,0.41277902406389444,0.3779311618319996,0.35517217462358364,0.3307836365543806,0.3338362783912916,0.3380998652343772,0.3701638252861197,0.3920356432677825,0.42862532938453146,0.4649304927445561,0.49345268183295143,0.4549117424660998,0.4056785380211667,0.358322116633746,0.35753420371760436,0.36712288068437937,0.38633228473109904,0.3717376696632235,0.3699128263709279,0.3725820007452185,0.379899286549497,0.38386936701301444,0.3791778561974106,0.36498404619717295,0.37713107932476797,0.3800781838528051,0.36331649398358135,0.34865358271660485,0.3249395256697487,0.292401461233728,0.2944353091135943,0.3384500570104967,0.38099236321248897,0.4038890895901255,0.39100816825966556,0.4014126105626712,0.4779802012509813,0.5705438890730736,0.662471705786158,0.7306568479149127,0.7061558001297619,0.6242597927156917,0.5420064944795429,0.47972544659173755,0.45512380969353883,0.4196389178911093,0.40762819187403787,0.4133267607729292,0.44024969906714384,0.4625808533882032,0.48942393693599806,0.5258632067150004,0.5421636921562976,0.5125178726435036,0.46625029084488867,0.4512119389781124,0.46533685642206013,0.4906730608808938,0.48803444053587697,0.505749753440718,0.5232820365990656,0.5387064296295492,0.5551508022707998,0.5639211604626073,0.5761079180062816,0.5859539560345817,0.5734951185064423,0.5587902288423372,0.5204275557574212,0.5107580603855006,0.4934296238407203,0.5104906461794791,0.5315027522618414,0.5508167420274965,0.5298608008500683,0.5483623866922316,0.6272274217820115,0.716098375877416,0.7903167086542409,0.8391121823627761,0.7738490922372696,0.6828991478528548,0.5987826863101802,0.5399064279913492,0.5017211428334667,0.47884503705048687,0.44925302280784507,0.44802224397398094,0.43834106525188377,0.42375934365648105,0.44836755031423703,0.4824472533650961,0.4892089992009425,0.44249857176196317,0.37938123976537463,0.31160525001277906,0.2898288266080318,0.28053920930441656,0.2879516050904063,0.27736139883770683,0.2843309700300227,0.2732972571439589
0,1,2,3,4,5,6,7,8,9,10,11,12,13,14,15,16,17,18,19,20,21,22,23,24,25,26,27,28,29,30,31,32,33,34,35,36,37,38,39,40,41,42,43,44,45,46,47,48,49,50,51,52,53,54,55,56,57,58,59,60,61,62,63,64,65,66,67,68,69,70,71,72,73,74,75,76,77,78,79,80,81,82,83,84,85,86,87,88,89,90,91,92,93,94,95,96,97,98,99,100,101,102,103,104,105,106,107,108,109,110,111,112,113,114,115,116,117,118,119,120,121,122,123,124,125,126,127,128,129,130,131,132,133,134,135,136,137,138,139,140,141,142,143,144,145,146,147,148,149,150,151,152,153,154,155,156,157,158,159,160,161,162,163,164,165,166,167,168,169,170,171,172,173,174,175,176,177,178,179,180,181,182,183,184,185,186,187,188,189,190,191,192,193,194,195,196,197,198,199,200,201,202,203,204,205,206,207,208,209,210,211,212,213,214,215,216,217,218,219,220,221,222,223,224,225,226,227,228,229,230,231,232,233,234,235,236,237,238,239,240,241,242,243,244,245,246,247,248,249,250,251,252,253,254
0.3473289901437986,0.34823819550923263,0.362409756524777,0.3523018262951898,0.3585378508968238,0.3451449272318112,0.3569378705588946,0.4116771070774088,0.4717350203594042,0.5268579680832595,0.5561054775338805,0.5375949118087737,0.506078101230929,0.4835925002366337,0.5059547696173543,0.5106010233095715,0.523411366943968,0.5488361864080606,0.5864044330142426,0.6591110084984897,0.7474820963791733,0.8370782211852847,0.930096549548447,1.0,0.9813488545835072,0.892900396910314,0.8312018593507804,0.7491081958368437,0.6572741867952798,0.6037789044174668,0.6105586831990082,0.5881746584339282,0.5650212222726125,0.5683899315037477,0.575464591985376,0.60818706541707,0.6291603002426709,0.6318714115204616,0.6318767357816539,0.6301615261631164,0.6073971973594037,0.5965667673115251,0.5895962396953802,0.5723957219420845,0.5538828791901715,0.5625272177995853,0.5622397535429506,0.5263605764756307,0.5163566322001549,0.5304215124932314,0.5756005066961656,0.5957537272967715,0.5799549164624436,0.5473380827678924,0.5188232932744876,0.4941698316311509,0.4760218200149917,0.46681112955819204,0.4777559282700423,0.5169947439437936,0.5538922946103444,0.6314634014877036,0.7164391957414322,0.8064083378088509,0.8864704835888979,0.8903723755053758,0.8213128102217353,0.750676613977995,0.6625122772399781,0.5662184652904951,0.48226835365521126,0.4494521038813084,0.4553717170734486,0.42308060481364906,0.3833221284652444,0.362050678198516,0.3866642575228143,0.43155573055752194,0.4496330354377669,0.44170183938932706,0.4490791455874037,0.4410410246394809,0.44992553397633017,0.4493370373019796,0.45310196459267305,0.4504288018823539,0.4508997142572735,0.4494180505449381,0.45144634972743614,0.42758873176210876,0.4183807175480103,0.4533896054351514,0.5063505333141891,0.5527549970758918,0.5647704128155238,0.5229536753894388,0.48319667899891305,0.45684776860538845,0.4248025808295144,0.43109954010820317,0.4001159304883841,0.40197702062577223,0.43102448103709357,0.44173085398341927,0.49843174947291935,0.5828306647166865,0.6709052032924419,0.7634006702100113,0.8282505539408995,0.7941005359592483,0.7157657492607452,0.6496488920866623,0.5657823256880392,0.4775878823826125,0.4398624962221862,0.4574880443707148,0.45576643025372565,0.4112638151217989,0.39460135082556036,0.39013088230485504,0.3952612694417841,0.43101936152143816,0.4216333026262835,0.3814250800673378,0.32854546411489194,0.24776599245173792,0.14244445657026672,0.041502916696573244,0.0,0.021373813803408748,0.11141268963110917,0.2173317063526503,0.29825958357423277,0.2780131975625886,0.17991811151019554,0.07471976830738702,0.006267153212810683,0.0026709360469969745,0.05897362776671056,0.16272130641175586,0.26490334096446677,0.32062233564973885,0.3536782129381888,0.3839653945329693,0.38894321239015284,0.37466143053276024,0.39870973972644697,0.4794795750770331,0.560462625296068,0.6246749185115403,0.6599204629265834,0.5832542855916008,0.4900422695866493,0.41277902406389444,0.3779311618319996,0.35517217462358364,0.3307836365543806,0.3338362783912916,0.3380998652343772,0.3701638252861197,0.3920356432677825,0.42862532938453146,0.4649304927445561,0.49345268183295143,0.4549117424660998,0.4056785380211667,0.358322116633746,0.35753420371760436,0.36712288068437937,0.38633228473109904,0.3717376696632235,0.3699128263709279,0.3725820007452185,0.379899286549497,0.38386936701301444,0.3791778561974106,0.36498404619717295,0.37713107932476797,0.3800781838528051,0.36331649398358135,0.34865358271660485,0.3249395256697487,0.292401461233728,0.2944353091135943,0.3384500570104967,0.38099236321248897,0.4038890895901255,0.39100816825966556,0.4014126105626712,0.4779802012509813,0.5705438890730736,0.662471705786158,0.7306568479149127,0.7061558001297619,0.6242597927156917,0.5420064944795429,0.47972544659173755,0.45512380969353883,0.4196389178911093,0.40762819187403787,0.4133267607729292,0.44024969906714384,0.4625808533882032,0.48942393693599806,0.5258632067150004,0.5421636921562976,0.5125178726435036,0.46625029084488867,0.4512119389781124,0.46533685642206013,0.4906730608808938,0.48803444053587697,0.505749753440718,0.5232820365990656,0.5387064296295492,0.5551508022707998,0.5639211604626073,0.5761079180062816,0.5859539560345817,0.5734951185064423,0.5587902288423372,0.5204275557574212,0.5107580603855006,0.4934296238407203,0.5104906461794791,0.5315027522618414,0.5508167420274965,0.5298608008500683,0.5483623866922316,0.6272274217820115,0.716098375877416,0.7903167086542409,0.8391121823627761,0.7738490922372696,0.6828991478528548,0.5987826863101802,0.5399064279913492,0.5017211428334667,0.47884503705048687,0.44925302280784507,0.44802224397398094,0.43834106525188377,0.42375934365648105,0.44836755031423703,0.4824472533650961,0.4892089992009425,0.44249857176196317,0.37938123976537463,0.31160525001277906,0.2898288266080318,0.28053920930441656,0.2879516050904063,0.27736139883770683,0.2843309700300227,0.2732972571439589
0,1,2,3,4,5,6,7,8,9,10,11,12,13,14,15,16,17,18,19,20,21,22,23,24,25,26,27,28,29,30,31,32,33,34,35,36,37,38,39,40,41,42,43,44,45,46,47,48,49,50,51,52,53,54,55,56,57,58,59,60,61,62,63,64,65,66,67,68,69,70,71,72,73,74,75,76,77,78,79,80,81,82,83,84,85,86,87,88,89,90,91,92,93,94,95,96,97,98,99,100,101,102,103,104,105,106,107,108,109,110,111,112,113,114,115,116,117,118,119,120,121,122,123,124,125,126,127,128,129,130,131,132,133,134,135,136,137,138,139,140,141,142,143,144,145,146,147,148,149,150,151,152,153,154,155,156,157,158,159,160,161,162,163,164,165,166,167,168,169,170,171,172,173,174,175,176,177,178,179,180,181,182,183,184,185,186,187,188,189,190,191,192,193,194,195,196,197,198,199,200,201,202,203,204,205,206,207,208,209,210,211,212,213,214,215,216,217,218,219,220,221,222,223,224,225,226,227,228,229,230,231,232,233,234,235,236,237,238,239,240,241,242,243,244,245,246,247,248,249,250,251,252,253,254
0.7220839608541145,0.6574137027412399,0.5808587737951143,0.5367857515818351,0.5700171885958976,0.6397011418100327,0.6657248508907374,0.6700967952523724,0.658249452214716,0.6304521309368769,0.6115368892601052,0.6122228928036808,0.6317449798572423,0.6491697244792847,0.6605027851999967,0.6606565233263528,0.6108003662872683,0.5434241871116292,0.4907436967557386,0.5224427867073218,0.5911547579478422,0.6693195031237775,0.733094470508814,0.7546931241256623,0.7645282281214416,0.7528395950449069,0.7313797180444643,0.742889541758808,0.860035883692432,0.9425660450226148,0.8865858674011053,0.7579692062999746,0.6348172109824555,0.5022064694831969,0.37904954580020656,0.40498092717105827,0.5250153319778357,0.6440889928977018,0.7539266488665066,0.794060900125602,0.7488179525637757,0.7431758355811788,0.7092974672767562,0.6389043897982067,0.5532585973565274,0.5437137597790791,0.602527452049642,0.6636805988057257,0.6672830230803966,0.6448051572246389,0.6303551465059449,0.6328758470541862,0.6525398735509103,0.6695748110743049,0.6686311973971195,0.6496336570820564,0.6151729725911692,0.552196832148212,0.4947435763547938,0.5168307552208544,0.5812956112302752,0.6494925607491435,0.7081985493733525,0.7464125166008002,0.7739469780251991,0.7891530967020763,0.7598739174229068,0.7531145965702044,0.8310563355974883,0.9475517028627811,1.0000000000000004,0.9166331379922212,0.7852111181588439,0.6629505635927933,0.5273202478140857,0.4117748111495989,0.45288517775889714,0.5792977180181533,0.6998993705944709,0.8087644607107323,0.8310118948073031,0.7809270125863415,0.7662447312317417,0.7198117786023732,0.6360093926635586,0.5730975960070568,0.5960257444276862,0.6521670686231209,0.6990959734787827,0.7010536442106572,0.6727121001711294,0.6618704905314492,0.6712850055350583,0.6804067078771903,0.6780597047906887,0.6714744080251189,0.6495178227945133,0.6036231414169633,0.5290508064257122,0.46569329090368683,0.4906425327346118,0.558475044380633,0.6267844857038645,0.6856840234320938,0.7217932950505275,0.7323191839626055,0.7294396949890118,0.7068881363538289,0.7144764105552692,0.8186485952179803,0.9133718590969409,0.870466917595818,0.7472214033872646,0.6217655417024281,0.4846475598160511,0.3704587897530889,0.4157520414921261,0.5375999603527988,0.651943677769109,0.748614242843594,0.7684728968022023,0.7304492957040614,0.7033472656910562,0.6416956914265137,0.6220076304330617,0.6549751851514918,0.6445471044760471,0.5521730042944171,0.47167301996381505,0.40549182373473647,0.27447849135025093,0.14478136100499484,0.09132848579591535,0.11781011732854951,0.23398672571612744,0.3688763283753995,0.41451309177924855,0.30790063013233526,0.18042562180373345,0.06261359371943831,0.0,0.0704134679015258,0.19175554243635506,0.32252783074795355,0.46001478425083064,0.5776269720731415,0.5946502687846151,0.6374981530803585,0.6757400639508062,0.670794875412875,0.6554675381167661,0.6144349277673697,0.546076642549528,0.4809039318736472,0.41123318951988397,0.3815238926283837,0.42393133282285866,0.5030899589979398,0.5789832471825131,0.6026107507526031,0.6162038684850786,0.6127425101787751,0.6112795812773069,0.5953205981688758,0.6019005606651855,0.6249578271204457,0.631264120606351,0.5773669193433482,0.522174866893923,0.48918094560059,0.5307444346951917,0.6163600060825662,0.684887966766687,0.7098572707959678,0.7070997925510274,0.6465523591878233,0.529706276537818,0.401564995139454,0.2791659093519514,0.14983958577769219,0.08449644242143295,0.15396051335577665,0.2752997462855147,0.40627340977785975,0.5436392298922206,0.6506156056470207,0.6552014043125891,0.6919787829370385,0.7055828988940536,0.7074360161885225,0.6825946735797168,0.6427854305331171,0.583946470066,0.5126656790020316,0.448477651418802,0.4234631039551089,0.46941265088998296,0.5351728014408903,0.5805043423445251,0.5926658519803105,0.6062204499453085,0.6052492303484391,0.5809263567337548,0.567325671504606,0.5796011855912404,0.5866507953570657,0.5998483980077642,0.5751345901310683,0.5058201459504188,0.46407639041962057,0.47901719533529663,0.5503296185817734,0.6298813187413188,0.6770238409292859,0.6749490969777825,0.6374215368524343,0.5282067774042942,0.39619671445572235,0.25905073241974597,0.13573905106166784,0.05015174937325062,0.08025628081495917,0.19460556100720927,0.3257413091807444,0.46316463694009347,0.5838741116285018,0.6336341194334265,0.6699429079041974,0.6901895033613816,0.6972911876664223,0.6929386872377901,0.6500129683022147,0.5782601550405957,0.5017905886654175,0.437937984407784,0.43028472595390976,0.48189490510609057,0.5486082069191145,0.6008102021406656,0.5912781330500225,0.5759378863929787,0.5685062859037173,0.5509719060343019,0.5490769815122758,0.5467921313645903,0.5637460402136725,0.5910128170801414,0.6122176595924955,0.5964345834947755,0.5354149708365674,0.47651812721658393,0.46326600200143897,0.504940823876673,0.5796398615334835,0.6520562885402024
0,1,2,3,4,5,6,7,8,9,10,11,12,13,14,15,16,17,18,19,20,21,22,23,24,25,26,27,28,29,30,31,32,33,34,35,36,37,38,39,40,41,42,43,44,45,46,47,48,49,50,51,52,53,54,55,56,57,58,59,60,61,62,63,64,65,66,67,68,69,70,71,72,73,74,75,76,77,78,79,80,81,82,83,84,85,86,87,88,89,90,91,92,93,94,95,96,97,98,99,100,101,102,103,104,105,106,107,108,109,110,111,112,113,114,115,116,117,118,119,120,121,122,123,124,125,126,127,128,129,130,131,132,133,134,135,136,137,138,139,140,141,142,143,144,145,146,147,148,149,150,151,152,153,154,155,156,157,158,159,160,161,162,163,164,165,166,167,168,169,170,171,172,173,174,175,176,177,178,179,180,181,182,183,184,185,186,187,188,189,190,191,192,193,194,195,196,197,198,199,200,201,202,203,204,205,206,207,208,209,210,211,212,213,214,215,216,217,218,219,220,221,222,223,224,225,226,227,228,229,230,231,232,233,234,235,236,237,238,239,240,241,242,243,244,245,246,247,248,249,250,251,252,253,254
0.7220839608541145,0.6574137027412399,0.5808587737951143,0.5367857515818351,0.5700171885958976,0.6397011418100327,0.6657248508907374,0.6700967952523724,0.658249452214716,0.6304521309368769,0.6115368892601052,0.6122228928036808,0.6317449798572423,0.6491697244792847,0.6605027851999967,0.6606565233263528,0.6108003662872683,0.5434241871116292,0.4907436967557386,0.5224427867073218,0.5911547579478422,0.6693195031237775,0.733094470508814,0.7546931241256623,0.7645282281214416,0.7528395950449069,0.7313797180444643,0.742889541758808,0.860035883692432,0.9425660450226148,0.8865858674011053,0.7579692062999746,0.6348172109824555,0.5022064694831969,0.37904954580020656,0.40498092717105827,0.5250153319778357,0.6440889928977018,0.7539266488665066,0.794060900125602,0.7488179525637757,0.7431758355811788,0.7092974672767562,0.6389043897982067,0.5532585973565274,0.5437137597790791,0.602527452049642,0.6636805988057257,0.6672830230803966,0.6448051572246389,0.6303551465059449,0.6328758470541862,0.6525398735509103,0.6695748110743049,0.6686311973971195,0.6496336570820564,0.6151729725911692,0.552196832148212,0.4947435763547938,0.5168307552208544,0.5812956112302752,0.6494925607491435,0.7081985493733525,0.7464125166008002,0.7739469780251991,0.7891530967020763,0.7598739174229068,0.7531145965702044,0.8310563355974883,0.9475517028627811,1.0000000000000004,0.9166331379922212,0.7852111181588439,0.6629505635927933,0.5273202478140857,0.4117748111495989,0.45288517775889714,0.5792977180181533,0.6998993705944709,0.8087644607107323,0.8310118948073031,0.7809270125863415,0.7662447312317417,0.7198117786023732,0.6360093926635586,0.5730975960070568,0.5960257444276862,0.6521670686231209,0.6990959734787827,0.7010536442106572,0.6727121001711294,0.6618704905314492,0.6712850055350583,0.6804067078771903,0.6780597047906887,0.6714744080251189,0.6495178227945133,0.6036231414169633,0.5290508064257122,0.46569329090368683,0.4906425327346118,0.558475044380633,0.6267844857038645,0.6856840234320938,0.7217932950505275,0.7323191839626055,0.7294396949890118,0.7068881363538289,0.7144764105552692,0.8186485952179803,0.9133718590969409,0.870466917595818,0.7472214033872646,0.6217655417024281,0.4846475598160511,0.3704587897530889,0.4157520414921261,0.5375999603527988,0.651943677769109,0.748614242843594,0.7684728968022023,0.7304492957040614,0.7033472656910562,0.6416956914265137,0.6220076304330617,0.6549751851514918,0.6445471044760471,0.5521730042944171,0.47167301996381505,0.40549182373473647,0.27447849135025093,0.14478136100499484,0.09132848579591535,0.11781011732854951,0.23398672571612744,0.3688763283753995,0.41451309177924855,0.30790063013233526,0.18042562180373345,0.06261359371943831,0.0,0.0704134679015258,0.19175554243635506,0.32252783074795355,0.46001478425083064,0.5776269720731415,0.5946502687846151,0.6374981530803585,0.6757400639508062,0.670794875412875,0.6554675381167661,0.6144349277673697,0.546076642549528,0.4809039318736472,0.41123318951988397,0.3815238926283837,0.42393133282285866,0.5030899589979398,0.5789832471825131,0.6026107507526031,0.6162038684850786,0.6127425101787751,0.6112795812773069,0.5953205981688758,0.6019005606651855,0.6249578271204457,0.631264120606351,0.5773669193433482,0.522174866893923,0.48918094560059,0.5307444346951917,0.6163600060825662,0.684887966766687,0.7098572707959678,0.7070997925510274,0.6465523591878233,0.529706276537818,0.401564995139454,0.2791659093519514,0.14983958577769219,0.08449644242143295,0.15396051335577665,0.2752997462855147,0.40627340977785975,0.5436392298922206,0.6506156056470207,0.6552014043125891,0.6919787829370385,0.7055828988940536,0.7074360161885225,0.6825946735797168,0.6427854305331171,0.583946470066,0.5126656790020316,0.448477651418802,0.4234631039551089,0.46941265088998296,0.5351728014408903,0.5805043423445251,0.5926658519803105,0.6062204499453085,0.6052492303484391,0.5809263567337548,0.567325671504606,0.5796011855912404,0.5866507953570657,0.5998483980077642,0.5751345901310683,0.5058201459504188,0.46407639041962057,0.47901719533529663,0.5503296185817734,0.6298813187413188,0.6770238409292859,0.6749490969777825,0.6374215368524343,0.5282067774042942,0.39619671445572235,0.25905073241974597,0.13573905106166784,0.05015174937325062,0.08025628081495917,0.19460556100720927,0.3257413091807444,0.46316463694009347,0.5838741116285018,0.6336341194334265,0.6699429079041974,0.6901895033613816,0.6972911876664223,0.6929386872377901,0.6500129683022147,0.5782601550405957,0.5017905886654175,0.437937984407784,0.43028472595390976,0.48189490510609057,0.5486082069191145,0.6008102021406656,0.5912781330500225,0.5759378863929787,0.5685062859037173,0.5509719060343019,0.5490769815122758,0.5467921313645903,0.5637460402136725,0.5910128170801414,0.6122176595924955,0.5964345834947755,0.5354149708365674,0.47651812721658393,0.46326600200143897,0.504940823876673,0.5796398615334835,0.6520562885402024
0,1,2,3,4,5,6,7,8,9,10,11,12,13,14,15,16,17,18,19,20,21,22,23,24,25,26,27,28,29,30,31,32,33,34,35,36,37,38,39,40,41,42,43,44,45,46,47,48,49,50,51,52,53,54,55,56,57,58,59,60,61,62,63,64,65,66,67,68,69,70,71,72,73,74,75,76,77,78,79,80,81,82,83,84,85,86,87,88,89,90,91,92,93,94,95,96,97,98,99,100,101,102,103,104,105,106,107,108,109,110,111,112,113,114,115,116,117,118,119,120,121,122,123,124,125,126,127,128,129,130,131,132,133,134,135,136,137,138,139,140,141,142,143,144,145,146,147,148,149,150,151,152,153,154,155,156,157,158,159,160,161,162,163,164,165,166,167,168,169,170,171,172,173,174,175,176,177,178,179,180,181,182,183,184,185,186,187,188,189,190,191,192,193,194,195,196,197,198,199,200,201,202,203,204,205,206,207,208,209,210,211,212,213,214,215,216,217,218,219,220,221,222,223,224,225,226,227,228,229,230,231,232,233,234,235,236,237,238,239,240,241,242,243,244,245,246,247,248,249,250,251,252,253,254
0.8193441901889011,0.7681746610985738,0.6946965426102074,0.6209075950917335,0.5795923131526663,0.6347973874148183,0.6982774844735107,0.7646808943422627,0.8343966585998461,0.8860791140483428,0.9259362396275934,0.9477480682098172,0.9683270194518983,0.9752843518735816,0.9827156652925817,1.0,0.9669472744888594,0.9675559780696013,0.962539578095662,0.876456971601209,0.7565551632096548,0.640289876884097,0.5142984632866034,0.48630614247302617,0.5896222562961775,0.7037256061528732,0.8256375102715601,0.9142332633715338,0.9638823975592707,0.9750543445183939,0.9818036485445818,0.9598072731452247,0.9068868591330892,0.8355860375017095,0.8171870366138516,0.8636700442759455,0.9116580126418641,0.9168808818890901,0.9163447176861257,0.8913778053467447,0.8977642347583785,0.8887280844618859,0.8740720240330555,0.8758106303263453,0.8747788582299285,0.8718743105378581,0.8772685686481441,0.8826492909479087,0.8733183358729457,0.871132512931609,0.8535639179622407,0.8743635213621523,0.8647802912503124,0.8751559017766422,0.8699523233846298,0.8572846931660187,0.8099297673373811,0.7337784799988141,0.6557892468728519,0.6120840636623446,0.6499551026709733,0.7152919699287197,0.7789381466967713,0.840263375203465,0.8839675994088738,0.9172687054144246,0.9367362457495085,0.9245101642091886,0.922036028068955,0.9290475870266444,0.9115310710215434,0.9209387607985571,0.9283169431404743,0.905122752941566,0.8063701748578631,0.7081948345427711,0.594739433363606,0.4712291279618954,0.36691828298984674,0.42795495905385783,0.5448207010787707,0.6629725303695402,0.7711604478068756,0.8633886892315337,0.9242222016034853,0.9342245978400112,0.9334227638201447,0.9272148921034216,0.8693336610252174,0.7991179353361479,0.7942302034668529,0.8293701658253947,0.8626119732176258,0.8741731998469184,0.8716851072835867,0.8656697907038153,0.8624454979264007,0.8708447063999314,0.8720955431061284,0.8938026927938258,0.8878560644821234,0.873614860985739,0.8678415582502983,0.8707756708369985,0.8696129245977393,0.8685674551519331,0.8696075234137122,0.8793192202557556,0.8869591342300995,0.8984188534112145,0.8585182622597762,0.7911583729453775,0.7057206164448431,0.6349089916723347,0.5723806309153554,0.5837066152155543,0.641514583504569,0.707525693426402,0.7740120775721056,0.8478243957003668,0.8783097861206168,0.8536946701458952,0.794392757078719,0.7504257503153053,0.6814105189311292,0.5985780426047946,0.47382341339035516,0.3428180139076802,0.26041331959861447,0.25812325839907446,0.33272980686279086,0.46209574515638385,0.5490154499625524,0.5124033245897146,0.47724228769949084,0.5158924090770833,0.5821760681317159,0.6557161492268246,0.7387888371398326,0.8005972784830866,0.8088148812334026,0.7922272074363694,0.77078405317204,0.7581161806560353,0.7525477315541491,0.7806209470888561,0.7969915444578786,0.7772159841255961,0.7900136490252168,0.8051302683772712,0.794026589310886,0.7932620563713386,0.7898566551500941,0.7882020436884569,0.7761471936169206,0.7873986833677988,0.7960130192337251,0.7686275022891955,0.7203022110408628,0.6716970616147497,0.6897604377209272,0.7461052730206692,0.8183723595032966,0.8515455177536726,0.8478847413827557,0.8016504168985481,0.7073798094317971,0.59987966054037,0.4814655470858331,0.3653816166668782,0.2369275934306101,0.12065679751344405,0.011732672389848986,0.0,0.09905311307829034,0.2239118705210994,0.3403998445653804,0.47123275847611135,0.6038303587325484,0.7284029787136297,0.812754083138362,0.8207601262276767,0.8317126539657465,0.821078910106543,0.8153631764616187,0.8317003877479903,0.8215807308598198,0.795694310815084,0.7610048699839136,0.703250787518277,0.638597019373607,0.5745637275825382,0.5187855020236314,0.5259827780392321,0.594734347097964,0.6664964947788814,0.7349991198726231,0.773470412890986,0.7874155624693215,0.7704897152707013,0.7609435356073444,0.7713089107986844,0.7875093644639879,0.7896880792915275,0.8022012439094004,0.7973989370825518,0.8009527212795784,0.7896853094757326,0.7950472685159231,0.7971309403601246,0.8078420073050974,0.8013591596245426,0.8131177262175697,0.8299952972394462,0.8012044792025859,0.75303272030754,0.7111686521418239,0.7423130354406497,0.8147726012194196,0.8701830609383028,0.8784661171909347,0.8778036899728239,0.8309134715387758,0.7294841183253622,0.6218758890540852,0.508046344383974,0.3858304380140374,0.2533440906580413,0.1217019181563268,0.02001038734008631,0.03741270430254007,0.1452309643497558,0.27306357428456574,0.3905955456991599,0.517306042488523,0.6363912097503626,0.7599177921778906,0.855471842502594,0.8813077224195127,0.8944260594471878,0.8842959713864387,0.8835369249582592,0.8708949649459625,0.855917456741679,0.8523576409502023,0.8009068859720005,0.7434970107588526,0.6768977061138002,0.6074050697026858,0.5465947560716202,0.49821019651087717,0.5077963231537246,0.5822136742934254,0.6559835861308216,0.7218149205183542
0,1,2,3,4,5,6,7,8,9,10,11,12,13,14,15,16,17,18,19,20,21,22,23,24,25,26,27,28,29,30,31,32,33,34,35,36,37,38,39,40,41,42,43,44,45,46,47,48,49,50,51,52,53,54,55,56,57,58,59,60,61,62,63,64,65,66,67,68,69,70,71,72,73,74,75,76,77,78,79,80,81,82,83,84,85,86,87,88,89,90,91,92,93,94,95,96,97,98,99,100,101,102,103,104,105,106,107,108,109,110,111,112,113,114,115,116,117,118,119,120,121,122,123,124,125,126,127,128,129,130,131,132,133,134,135,136,137,138,139,140,141,142,143,144,145,146,147,148,149,150,151,152,153,154,155,156,157,158,159,160,161,162,163,164,165,166,167,168,169,170,171,172,173,174,175,176,177,178,179,180,181,182,183,184,185,186,187,188,189,190,191,192,193,194,195,196,197,198,199,200,201,202,203,204,205,206,207,208,209,210,211,212,213,214,215,216,217,218,219,220,221,222,223,224,225,226,227,228,229,230,231,232,233,234,235,236,237,238,239,240,241,242,243,244,245,246,247,248,249,250,251,252,253,254
