0,1,2,3,4,5,6,7,8,9,10,11,12,13,14,15,16,17,18,19,20,21,22,23,24,25,26,27,28,29,30,31,32,33,34,35,36,37,38,39,40,41,42,43,44,45,46,47,48,49,50,51,52,53,54,55,56,57,58,59,60,61,62,63,64,65,66,67,68,69,70,71,72,73,74,75,76,77,78,79,80,81,82,83,84,85,86,87,88,89,90,91,92,93,94,95,96,97,98,99,100,101,102,103,104,105,106,107,108,109,110,111,112,113,114,115,116,117,118,119,120,121,122,123,124,125,126,127,128,129,130,131,132,133,134,135,136,137,138,139,140,141,142,143,144,145,146,147,148,149,150,151,152,153,154,155,156,157,158,159,160,161,162,163,164,165,166,167,168,169,170,171,172,173,174,175,176,177,178,179,180,181,182,183,184,185,186,187,188,189,190,191,192,193,194,195,196,197,198,199,200,201,202,203,204,205,206,207,208,209,210,211,212,213,214,215,216,217,218,219,220,221,222,223,224,225,226,227,228,229,230,231,232,233,234,235,236,237,238,239,240,241,242,243,244,245,246,247,248,249,250,251,252,253,254
0.0,0.00840735225222744,0.04109268088535645,0.09075972797399423,0.1456944422729478,0.2018132747835235,0.26383246876243804,0.31857449969884755,0.36344484497822815,0.41133060659021936,0.45924117375960627,0.5073564435087294,0.5594848983504273,0.6209427126596889,0.6832009309027387,0.7445097207101847,0.7966348398438781,0.8568391924650851,0.9186724933457255,0.9690801433146943,0.988385585253329,0.950099403336464,0.8932626288011885,0.8402620177499478,0.7784453089612544,0.7170021563570299,0.6647024856843329,0.6048057433864154,0.5425521723267219,0.4810613691811261,0.42872540507907475,0.36891194636790825,0.3069884123134745,0.25330835451859457,0.19540970026851978,0.14061576403349108,0.08820746086608278,0.04732385826904428,0.04993230084411149,0.0656122777928223,0.08992670787009205,0.1253236887286513,0.1574037432892088,0.16028905025153817,0.13184877467452738,0.1025696053844074,0.07898546653535643,0.0673204842409465,0.06563907795200752,0.06563758166760225,0.06589639075166565,0.0744202152026765,0.08670997696128513,0.09739747313949021,0.11792845401709151,0.137681258877147,0.15594990347300142,0.1464016347634871,0.12601507612983376,0.10216224483316294,0.07723595543092987,0.05438292841330572,0.03847434178932252,0.026167335849950124,0.015791729222826678,0.027600633436016153,0.05865518691003002,0.10335789893615388,0.15556430186336678,0.21524101821084418,0.2674320460064097,0.3286662693138527,0.39090993923415684,0.4492068809345833,0.5026731305625658,0.5645589845015251,0.6268178610702329,0.688322285137227,0.7407598925330072,0.8004572637567517,0.8626396167950743,0.9186856047859306,0.9719810153367794,0.9938559848445938,0.9578955292946687,0.8970864193777106,0.8348304132454953,0.7740574193271352,0.7220943098604113,0.6611932057575691,0.5989474595722784,0.5398272586938941,0.4870307120781492,0.42538720719750156,0.3692375564537902,0.3138221141342892,0.2520668679902429,0.19873332687964407,0.14047710648853196,0.0866187535168832,0.04750553827121751,0.03996793121232001,0.05236113801141862,0.08107641649598207,0.12046530708764669,0.14226912839435224,0.1262982259966705,0.09552761762513207,0.06749714901358495,0.0469961313237639,0.03944418824843554,0.04135369712733139,0.053063354908694293,0.06433781128173433,0.06793696431596663,0.07869580909537,0.09286878897654427,0.1150375608727292,0.1348749003123868,0.13569100468552753,0.11518819560766991,0.08499746191935209,0.055644171821105815,0.046282632627777875,0.032809850003542085,0.015368073826617312,0.00526066752697707,0.0006367353995884173,0.01177299378336416,0.04035727987796456,0.09200899590199052,0.1418781306845629,0.18404988583465354,0.2344607760595312,0.29511639629582076,0.35678011722865444,0.4094753162999387,0.46875774613251986,0.5310072223771631,0.592707663657762,0.645457759315629,0.7046523151313537,0.7669003333498265,0.8290060537329116,0.8839215481507585,0.9403140412159199,0.9877688476382329,0.9856392276477282,0.9390325085907105,0.8815150450864442,0.823631799943235,0.7698703842571111,0.7078884015028297,0.6456295249341224,0.5833706483654142,0.521111771796706,0.458853338388749,0.39770708531152854,0.3455616153432284,0.28526218699479644,0.2282616137393405,0.17402686138251333,0.12080506463021567,0.06990280685284889,0.03910857541315904,0.039751370791307306,0.05323518684981687,0.08097335672523664,0.11843765864839373,0.1515421402200432,0.14681080690187454,0.11369015636210644,0.07822668446957293,0.056458406254411564,0.048907578342772595,0.04067627437814636,0.05037873198198328,0.055731894170147456,0.06553186075919726,0.07544684508167787,0.09155645857616257,0.11429568410221203,0.13480074265816766,0.15062582024371096,0.14515667685541844,0.12234195282185167,0.10412621131890276,0.08149933652322172,0.055770618255726045,0.035125694138562036,0.020710554335469755,0.01322729362912245,0.014717274917929846,0.03336479792450797,0.07649399560776171,0.13629522158315677,0.18873462273240627,0.24842514285618567,0.31039241845311194,0.36406505885218055,0.4220794026821455,0.48431306495063264,0.5465592415662157,0.6052088616412337,0.6583802034528059,0.7202061759232947,0.7824006667017955,0.8387300409084402,0.8939677022958761,0.9551134887093742,1.0,0.999202537931978,0.9535998656950904,0.8927465382966373,0.8432461224092997,0.8049006030865153,0.7636986607240668,0.7213032930429173,0.6791552995657204,0.6396057355918567,0.5875457494774889,0.525595647840976,0.4633367712722678,0.40107789470356003,0.3388251659389985,0.27934670945342965,0.22677703952445505,0.16705054440544487,0.11516564780379035,0.06327076250896013,0.046169488390209956,0.05530512986570413,0.07480509332237384,0.10612987413262287,0.14549226986301056,0.16751399308243853,0.15159633991256305,0.11736393594665229,0.08655255988489774,0.062105463952728535,0.052627216145886724,0.052709259537543574,0.06062080352556043,0.06569037175372827,0.07239342143422567,0.08043782153787626,0.09613217075308578,0.11492703255184766,0.13991194710328747,0.15267482516371222,0.14801521309584986,0.13038011187233778,0.10568420341541529,0.07560408084677439,0.054839128172477825
0,1,2,3,4,5,6,7,8,9,10,11,12,13,14,15,16,17,18,19,20,21,22,23,24,25,26,27,28,29,30,31,32,33,34,35,36,37,38,39,40,41,42,43,44,45,46,47,48,49,50,51,52,53,54,55,56,57,58,59,60,61,62,63,64,65,66,67,68,69,70,71,72,73,74,75,76,77,78,79,80,81,82,83,84,85,86,87,88,89,90,91,92,93,94,95,96,97,98,99,100,101,102,103,104,105,106,107,108,109,110,111,112,113,114,115,116,117,118,119,120,121,122,123,124,125,126,127,128,129,130,131,132,133,134,135,136,137,138,139,140,141,142,143,144,145,146,147,148,149,150,151,152,153,154,155,156,157,158,159,160,161,162,163,164,165,166,167,168,169,170,171,172,173,174,175,176,177,178,179,180,181,182,183,184,185,186,187,188,189,190,191,192,193,194,195,196,197,198,199,200,201,202,203,204,205,206,207,208,209,210,211,212,213,214,215,216,217,218,219,220,221,222,223,224,225,226,227,228,229,230,231,232,233,234,235,236,237,238,239,240,241,242,243,244,245,246,247,248,249,250,251,252,253,254
0.0,0.05274761891491542,0.07723485612653302,0.10330257122105024,0.11046382441228264,0.12521303194505906,0.13909519744707177,0.15583332554008233,0.20075422930380515,0.24802704638864626,0.27081030385839044,0.28169479259773933,0.2736633996693225,0.2424326669995187,0.20867569494870564,0.16862379971213537,0.14330964749099095,0.12666017065232094,0.1108066587203611,0.10608832074693986,0.10532737603707565,0.0833841076164985,0.06417411414244967,0.12134131302278206,0.18841665625897575,0.2662853947230355,0.34435884337972533,0.42243229203641564,0.5005057406931059,0.5785791893497967,0.656652638006487,0.7347260866631773,0.8127366032219308,0.8826971589344597,0.9491994131570798,0.9999999999999996,0.981828249994773,0.9157532361009912,0.8384303418687695,0.7742033847561518,0.7013013543094244,0.6368306000691368,0.5836678525299437,0.52046296295237,0.4474740999621005,0.37003916803519354,0.3057361520284809,0.2327929834136544,0.1568131050557704,0.0949448451853514,0.04954949255089858,0.03682044206256929,0.04135036960002214,0.02853875189407251,0.03695055606199693,0.06495045841589642,0.09113869521166595,0.11068605037835777,0.14610212711513437,0.1961562368160079,0.2311335880558576,0.26658414053281865,0.2815495283407752,0.2705185213292314,0.24257639752060678,0.2058648233153315,0.16826335911133938,0.1283563561846508,0.10657467322875291,0.09662411003664273,0.07732794075243099,0.06711531876755483,0.06690097895840674,0.06142207770792618,0.09041737142361717,0.16477151286280423,0.24284037481239018,0.3209092793851456,0.3956886370389818,0.4586334585082983,0.5355969316880307,0.6136305674649916,0.6844882969809776,0.741906446375244,0.7549673987125662,0.7023267992199829,0.627008336131579,0.5623563264785965,0.5020404834278933,0.44966392441667047,0.37294874384172827,0.30370022800360363,0.23612970426545754,0.15981360736742234,0.09894181944411651,0.045288121224379196,0.028067822334197245,0.0281364185670685,0.03967423774571799,0.03866286961263654,0.0280845947359345,0.0347744725466983,0.050126561423567306,0.06580245043621291,0.06992071808395961,0.08842040971049947,0.11746397200792424,0.15127846093376718,0.2019684457295332,0.24855458384963258,0.292009265879027,0.3013372984153233,0.2928844234501198,0.27176672708025285,0.23056348865381793,0.19343236428252286,0.15069648389939605,0.11973254949992551,0.1058703915033492,0.09275866467312754,0.08923013209254016,0.10080840768098653,0.07755151730787135,0.045407839039542264,0.07697088046527112,0.1417053815051612,0.2194716098547942,0.2961100071616283,0.3473625224196124,0.4139472433623541,0.4770407655723079,0.5512330509167667,0.6293001147774016,0.7066397505180437,0.7601854997470276,0.7571461086906885,0.7019882305813554,0.6304270368315557,0.5523759318026045,0.47430248314591417,0.3965247670777101,0.3310844115781708,0.259595244322949,0.18278034334053217,0.12023150158299911,0.05440402734918015,0.02882382499138325,0.027927799544714915,0.027927692298144624,0.027943863068071728,0.03392318530448435,0.047191289339363784,0.05832110871881424,0.0730048754655499,0.09930975529876873,0.12647638181856458,0.16025250239588562,0.19209704274670658,0.232132804294098,0.2616613590194605,0.295799734361299,0.28257035643959094,0.2617452889142564,0.2343500838171524,0.2056877520264484,0.17486033915646848,0.1537431971906429,0.12572485731685035,0.10925871818104227,0.10607699866702802,0.10262633504969632,0.07896689843038107,0.046521488936608346,0.07995691109603298,0.15494580327545338,0.21749190931833118,0.2937925198458724,0.3718646020330634,0.4498230698476813,0.517700453962934,0.5866520169681197,0.6646208800676208,0.7420923791685725,0.8058987694408093,0.8604315858572473,0.8473757440707428,0.7893417523344799,0.7124703331344477,0.6415189342741292,0.5755382069432797,0.4977477604483287,0.4207223667623423,0.3576036963922409,0.28305911305390596,0.20503030367374642,0.13400322271434684,0.0795678746270525,0.06705966191043977,0.06598151272564046,0.051207746435523394,0.05733287436118717,0.05995058977238621,0.05301999987791417,0.0716140567203869,0.08592909897961798,0.08348097354833905,0.06830421269794007,0.06700409287632603,0.06899244363835244,0.0844397247579951,0.09174914241554077,0.11577419976634129,0.1544818591118946,0.1905459213638787,0.230217585857444,0.2523039266968876,0.26223286133877544,0.2584868097593622,0.2254623475105455,0.19376409346531087,0.18138055072577242,0.16588665126996816,0.15334871549212092,0.14518227564492747,0.13857417691937002,0.11924380104176979,0.09527419282926708,0.09503416855370928,0.08457440640567082,0.09793477074383095,0.1724313310920138,0.2505021460250201,0.3285755946817104,0.4066490433384007,0.48472249199509143,0.5627951523894881,0.6390825181666884,0.7017971033395631,0.7774709166970046,0.8502978039622175,0.8820235373552823,0.8494415364828058,0.7905144268197946,0.7167121869985511,0.6388380268100846,0.5714655782915647,0.5019638848829269,0.4247961617969298,0.36106919991207986,0.28817009811096206,0.22533066711743022,0.17495742850007057,0.1251206520529906,0.09123300182250071,0.07626983749547422
0,1,2,3,4,5,6,7,8,9,10,11,12,13,14,15,16,17,18,19,20,21,22,23,24,25,26,27,28,29,30,31,32,33,34,35,36,37,38,39,40,41,42,43,44,45,46,47,48,49,50,51,52,53,54,55,56,57,58,59,60,61,62,63,64,65,66,67,68,69,70,71,72,73,74,75,76,77,78,79,80,81,82,83,84,85,86,87,88,89,90,91,92,93,94,95,96,97,98,99,100,101,102,103,104,105,106,107,108,109,110,111,112,113,114,115,116,117,118,119,120,121,122,123,124,125,126,127,128,129,130,131,132,133,134,135,136,137,138,139,140,141,142,143,144,145,146,147,148,149,150,151,152,153,154,155,156,157,158,159,160,161,162,163,164,165,166,167,168,169,170,171,172,173,174,175,176,177,178,179,180,181,182,183,184,185,186,187,188,189,190,191,192,193,194,195,196,197,198,199,200,201,202,203,204,205,206,207,208,209,210,211,212,213,214,215,216,217,218,219,220,221,222,223,224,225,226,227,228,229,230,231,232,233,234,235,236,237,238,239,240,241,242,243,244,245,246,247,248,249,250,251,252,253,254
0.6293333475537519,0.5952505676508677,0.5642922447995566,0.5399373312911315,0.5015887241306514,0.5035740418205048,0.527796262443057,0.5015468515021144,0.46997133495889987,0.44763503331915544,0.4628806406012034,0.46303956754849196,0.46303807574015643,0.4604288776424328,0.430621742777924,0.4009339960893117,0.3935098291670611,0.3654955439602512,0.34688709519074923,0.2944275436798591,0.2363508703367847,0.17827161616529175,0.12006626850127411,0.08760573272056682,0.05995300393997294,0.049490748324036105,0.0,0.028498700449365977,0.10274338085748624,0.18975791542611908,0.25084345736348723,0.3315811418545431,0.3919570720530894,0.46113620158504975,0.48980931626193414,0.4508247071244673,0.37830444733418744,0.34396670202790514,0.36130061724379825,0.3436917677884539,0.32806589658419405,0.3113063348819365,0.32698026540294567,0.34965381027939646,0.377807561018356,0.4080887751049307,0.4588304988311096,0.4776383380308662,0.5209141603816194,0.5592448867960389,0.5640242063884662,0.5614919609038989,0.5337256786726225,0.5539854131520805,0.5365315861126101,0.5002051833053072,0.48227215375067,0.46897952540199395,0.4952752409681498,0.4963733986353214,0.47500490357133973,0.4879515442937148,0.49669159023917686,0.4965930662757492,0.4815188731614386,0.46314991968127384,0.46303956754849196,0.464462282699329,0.4973731181569816,0.5227403965926678,0.4853230763384593,0.4798048204180354,0.4965693087242844,0.4966989357883147,0.48920870395423055,0.4635998857720356,0.4630517407045085,0.4764358752047819,0.49354822173630364,0.4661414493948559,0.49974296086335634,0.530076604039083,0.5347862958062866,0.5621252895102193,0.5646006180101217,0.5903835239098019,0.5990851073531056,0.6319649479229836,0.6634572369168019,0.6650164534509511,0.6648987528429675,0.6491400324330723,0.6314331364490036,0.6299936446632399,0.5997338747395871,0.5640647618271792,0.5346862899848599,0.5303649724113937,0.5286613541407412,0.5044195156217999,0.5275316594478738,0.5303636148658084,0.5303651961826441,0.530378085406662,0.5444560571418515,0.5638655897948635,0.5638921423523833,0.5456468371987944,0.5037342718381463,0.4865825813118647,0.4185789708381735,0.3595920578368714,0.3015145341630463,0.2473812865994054,0.2275513592186078,0.22740631194096572,0.23632746830450468,0.31115576217278385,0.3996742700104665,0.4882392348224771,0.5612409100715352,0.6318939254089893,0.719761045832227,0.7822939644598481,0.8309908509878978,0.8221243925983606,0.7641736771967409,0.6919314884595904,0.6049414377683373,0.5438965000501899,0.5045041554065381,0.5331560115475895,0.5581089749108905,0.5323973446545551,0.5435899167496654,0.5638551085221586,0.5640383934857347,0.5759193673768515,0.6250606368161815,0.679364532178873,0.7086409310061645,0.7316522360613131,0.7122993785247376,0.668070224597197,0.6342247144903723,0.6565908905178999,0.6650081613950096,0.6550999498499763,0.6035881610223974,0.597692495642133,0.5975940867542251,0.5835466845832897,0.5641846448589822,0.5639501387280168,0.5514436390401478,0.5355873869784693,0.5623241684578177,0.5640421080884899,0.5795046960864259,0.5975451741482676,0.5977035350238147,0.6116084576975673,0.6311906139828114,0.6366747911503596,0.6634305111036687,0.672008898865081,0.6893534418568894,0.6655240832104719,0.6713376636817046,0.697433711996676,0.6987921911356123,0.7177432082448734,0.7612140555738369,0.7973722387329873,0.799676736159685,0.81121789319472,0.8336399302801123,0.8608941427571741,0.8906619806119496,0.9011826214676866,0.9268252900762235,0.9339260103047033,0.9117443946034491,0.8996957277607134,0.8718518126078942,0.8364323357424075,0.8333295702789973,0.8312029843669384,0.8073848444754876,0.8307610393276601,0.8081103722361744,0.770460008003524,0.7660054931255145,0.770951026588313,0.7970987769796691,0.7746596913371313,0.7931498168595095,0.7996259108252302,0.7894156531436458,0.7699692494313206,0.7938541516514279,0.7440275994596295,0.6853693181265088,0.6267343380632582,0.5754641992995024,0.531111575932969,0.49603126438546585,0.466835630788216,0.46314949665047234,0.4875908036451957,0.5676488207264674,0.6281183013947569,0.7143797048563982,0.7915332895428557,0.8575976088796748,0.9147233030337754,0.9299190045080765,0.8900889393698863,0.8180807937484991,0.7808316121520873,0.7987357681666758,0.7826364358451308,0.7660329690212215,0.7705853136419751,0.8084431705848134,0.832884667696292,0.8520685596411592,0.9214895962443057,0.9342847531474314,0.9504760048570411,0.9991503088356914,1.0,0.9723213026781066,0.9402408086736216,0.9045392742068437,0.923618258483458,0.9083334331979174,0.8710886180148352,0.8535249967172156,0.8110011194296538,0.7827041438176225,0.7660355402560262,0.7658927858063063,0.7505895069237152,0.7303405493415704,0.706394492009589,0.7265948174368919,0.7013659485564325,0.7241403443448649,0.7197993897877399,0.6757005922309585,0.6478797962701375,0.6646627229350761,0.6650164534509511,0.6650164534509511
0,1,2,3,4,5,6,7,8,9,10,11,12,13,14,15,16,17,18,19,20,21,22,23,24,25,26,27,28,29,30,31,32,33,34,35,36,37,38,39,40,41,42,43,44,45,46,47,48,49,50,51,52,53,54,55,56,57,58,59,60,61,62,63,64,65,66,67,68,69,70,71,72,73,74,75,76,77,78,79,80,81,82,83,84,85,86,87,88,89,90,91,92,93,94,95,96,97,98,99,100,101,102,103,104,105,106,107,108,109,110,111,112,113,114,115,116,117,118,119,120,121,122,123,124,125,126,127,128,129,130,131,132,133,134,135,136,137,138,139,140,141,142,143,144,145,146,147,148,149,150,151,152,153,154,155,156,157,158,159,160,161,162,163,164,165,166,167,168,169,170,171,172,173,174,175,176,177,178,179,180,181,182,183,184,185,186,187,188,189,190,191,192,193,194,195,196,197,198,199,200,201,202,203,204,205,206,207,208,209,210,211,212,213,214,215,216,217,218,219,220,221,222,223,224,225,226,227,228,229,230,231,232,233,234,235,236,237,238,239,240,241,242,243,244,245,246,247,248,249,250,251,252,253,254
0.6293333475537519,0.5952505676508677,0.5642922447995566,0.5399373312911315,0.5015887241306514,0.5035740418205048,0.527796262443057,0.5015468515021144,0.46997133495889987,0.44763503331915544,0.4628806406012034,0.46303956754849196,0.46303807574015643,0.4604288776424328,0.430621742777924,0.4009339960893117,0.3935098291670611,0.3654955439602512,0.34688709519074923,0.2944275436798591,0.2363508703367847,0.17827161616529175,0.12006626850127411,0.08760573272056682,0.05995300393997294,0.049490748324036105,0.0,0.028498700449365977,0.10274338085748624,0.18975791542611908,0.25084345736348723,0.3315811418545431,0.3919570720530894,0.46113620158504975,0.48980931626193414,0.4508247071244673,0.37830444733418744,0.34396670202790514,0.36130061724379825,0.3436917677884539,0.32806589658419405,0.3113063348819365,0.32698026540294567,0.34965381027939646,0.377807561018356,0.4080887751049307,0.4588304988311096,0.4776383380308662,0.5209141603816194,0.5592448867960389,0.5640242063884662,0.5614919609038989,0.5337256786726225,0.5539854131520805,0.5365315861126101,0.5002051833053072,0.48227215375067,0.46897952540199395,0.4952752409681498,0.4963733986353214,0.47500490357133973,0.4879515442937148,0.49669159023917686,0.4965930662757492,0.4815188731614386,0.46314991968127384,0.46303956754849196,0.464462282699329,0.4973731181569816,0.5227403965926678,0.4853230763384593,0.4798048204180354,0.4965693087242844,0.4966989357883147,0.48920870395423055,0.4635998857720356,0.4630517407045085,0.4764358752047819,0.49354822173630364,0.4661414493948559,0.49974296086335634,0.530076604039083,0.5347862958062866,0.5621252895102193,0.5646006180101217,0.5903835239098019,0.5990851073531056,0.6319649479229836,0.6634572369168019,0.6650164534509511,0.6648987528429675,0.6491400324330723,0.6314331364490036,0.6299936446632399,0.5997338747395871,0.5640647618271792,0.5346862899848599,0.5303649724113937,0.5286613541407412,0.5044195156217999,0.5275316594478738,0.5303636148658084,0.5303651961826441,0.530378085406662,0.5444560571418515,0.5638655897948635,0.5638921423523833,0.5456468371987944,0.5037342718381463,0.4865825813118647,0.4185789708381735,0.3595920578368714,0.3015145341630463,0.2473812865994054,0.2275513592186078,0.22740631194096572,0.23632746830450468,0.31115576217278385,0.3996742700104665,0.4882392348224771,0.5612409100715352,0.6318939254089893,0.719761045832227,0.7822939644598481,0.8309908509878978,0.8221243925983606,0.7641736771967409,0.6919314884595904,0.6049414377683373,0.5438965000501899,0.5045041554065381,0.5331560115475895,0.5581089749108905,0.5323973446545551,0.5435899167496654,0.5638551085221586,0.5640383934857347,0.5759193673768515,0.6250606368161815,0.679364532178873,0.7086409310061645,0.7316522360613131,0.7122993785247376,0.668070224597197,0.6342247144903723,0.6565908905178999,0.6650081613950096,0.6550999498499763,0.6035881610223974,0.597692495642133,0.5975940867542251,0.5835466845832897,0.5641846448589822,0.5639501387280168,0.5514436390401478,0.5355873869784693,0.5623241684578177,0.5640421080884899,0.5795046960864259,0.5975451741482676,0.5977035350238147,0.6116084576975673,0.6311906139828114,0.6366747911503596,0.6634305111036687,0.672008898865081,0.6893534418568894,0.6655240832104719,0.6713376636817046,0.697433711996676,0.6987921911356123,0.7177432082448734,0.7612140555738369,0.7973722387329873,0.799676736159685,0.81121789319472,0.8336399302801123,0.8608941427571741,0.8906619806119496,0.9011826214676866,0.9268252900762235,0.9339260103047033,0.9117443946034491,0.8996957277607134,0.8718518126078942,0.8364323357424075,0.8333295702789973,0.8312029843669384,0.8073848444754876,0.8307610393276601,0.8081103722361744,0.770460008003524,0.7660054931255145,0.770951026588313,0.7970987769796691,0.7746596913371313,0.7931498168595095,0.7996259108252302,0.7894156531436458,0.7699692494313206,0.7938541516514279,0.7440275994596295,0.6853693181265088,0.6267343380632582,0.5754641992995024,0.531111575932969,0.49603126438546585,0.466835630788216,0.46314949665047234,0.4875908036451957,0.5676488207264674,0.6281183013947569,0.7143797048563982,0.7915332895428557,0.8575976088796748,0.9147233030337754,0.9299190045080765,0.8900889393698863,0.8180807937484991,0.7808316121520873,0.7987357681666758,0.7826364358451308,0.7660329690212215,0.7705853136419751,0.8084431705848134,0.832884667696292,0.8520685596411592,0.9214895962443057,0.9342847531474314,0.9504760048570411,0.9991503088356914,1.0,0.9723213026781066,0.9402408086736216,0.9045392742068437,0.923618258483458,0.9083334331979174,0.8710886180148352,0.8535249967172156,0.8110011194296538,0.7827041438176225,0.7660355402560262,0.7658927858063063,0.7505895069237152,0.7303405493415704,0.706394492009589,0.7265948174368919,0.7013659485564325,0.7241403443448649,0.7197993897877399,0.6757005922309585,0.6478797962701375,0.6646627229350761,0.6650164534509511,0.6650164534509511
0,1,2,3,4,5,6,7,8,9,10,11,12,13,14,15,16,17,18,19,20,21,22,23,24,25,26,27,28,29,30,31,32,33,34,35,36,37,38,39,40,41,42,43,44,45,46,47,48,49,50,51,52,53,54,55,56,57,58,59,60,61,62,63,64,65,66,67,68,69,70,71,72,73,74,75,76,77,78,79,80,81,82,83,84,85,86,87,88,89,90,91,92,93,94,95,96,97,98,99,100,101,102,103,104,105,106,107,108,109,110,111,112,113,114,115,116,117,118,119,120,121,122,123,124,125,126,127,128,129,130,131,132,133,134,135,136,137,138,139,140,141,142,143,144,145,146,147,148,149,150,151,152,153,154,155,156,157,158,159,160,161,162,163,164,165,166,167,168,169,170,171,172,173,174,175,176,177,178,179,180,181,182,183,184,185,186,187,188,189,190,191,192,193,194,195,196,197,198,199,200,201,202,203,204,205,206,207,208,209,210,211,212,213,214,215,216,217,218,219,220,221,222,223,224,225,226,227,228,229,230,231,232,233,234,235,236,237,238,239,240,241,242,243,244,245,246,247,248,249,250,251,252,253,254
0.18104115401698806,0.1484747536174078,0.128655806686365,0.10388440748518946,0.09729068169335608,0.0981425780197096,0.1279368572309334,0.2017022135937232,0.25882377966877534,0.2987495365534647,0.36996242704788873,0.4453854212040005,0.5360705890076005,0.6123564077090125,0.7089918190918967,0.778907663166482,0.8329004187345772,0.8246426816392116,0.7564501234119074,0.665961248843578,0.5893781509458851,0.49029443986825694,0.39042036404294933,0.2905462882176426,0.1912209854988678,0.11540639276974929,0.04883212337603737,0.0016077740744862012,0.0,0.012666143700037047,0.05620960416269405,0.093881514952189,0.14797894552409652,0.21431850197650704,0.27564243220157003,0.3200306431612061,0.35138211884710824,0.33344607516370584,0.3110282532484483,0.2628346950338285,0.22313400315600962,0.1791448985323294,0.1294599856631411,0.11156959929741195,0.12909222452243174,0.11068761119684467,0.09734786261987782,0.09861123484445233,0.12428883258361534,0.12972317695095725,0.1297357490156168,0.13860862087120562,0.1616457273287617,0.1621728167681944,0.16072194008139373,0.13580505686667266,0.12973337877274815,0.1307088123050253,0.1548421266367157,0.16215671585595182,0.16217311304855286,0.16217809055857924,0.1699464236707069,0.19396926011174376,0.20587762858371228,0.25875419672767563,0.31398577419392737,0.36649930397036545,0.4256539161434345,0.49221385834291986,0.5486993622114165,0.5986711751806757,0.649733138513521,0.7135661222996701,0.7632077877597387,0.7785043016761382,0.7780003055700666,0.749554804310808,0.6997163084323592,0.6392660099061445,0.5836982487472113,0.5337848329247441,0.48383483567165975,0.433895116839655,0.3818084811021931,0.3287136888965607,0.31074733322322956,0.26252324597272114,0.24753320637328446,0.22911335069785732,0.25610793127253473,0.27040865520390156,0.31771922167097166,0.38098536924283444,0.420148259663228,0.4610829408988417,0.531877354847448,0.6052544423242106,0.698206991934958,0.7804521885418003,0.8526922391319847,0.8965697294251997,0.9363825986049763,0.9010883178157352,0.8291795319303867,0.7307560053739168,0.6325782948910259,0.5578980168591672,0.4635743417588074,0.36613606004634214,0.2922875331038792,0.19932187906670773,0.12923530047087883,0.07132364543952541,0.030648759966424244,0.01073245768767439,0.03494439597224819,0.08419112237170978,0.13229102695050088,0.19776643889188872,0.24516270064973167,0.30948911729005246,0.3701877332096384,0.38905653130242257,0.3862879376852746,0.3559023965749244,0.30008517437021087,0.25750226127248155,0.210809254923082,0.14952956851685784,0.12985525607377468,0.12972994192058795,0.12972994192058795,0.12980938298382405,0.14446140134532115,0.1527028998696771,0.13036321863763334,0.1297287567991532,0.1264367151952488,0.10111303035930952,0.12606827481557747,0.12883002219123085,0.1045375596682927,0.09729127425407391,0.09728878549906028,0.10179432049925996,0.12754194745015646,0.12972929010379897,0.12972994192058795,0.1310587909217258,0.16398359271581153,0.21383202459841044,0.26539093045948636,0.34074379412356937,0.3806780300212713,0.44335651855548885,0.49894203423019867,0.5651464787831362,0.627904810786224,0.6781776434686275,0.7270158418797692,0.7459207200166773,0.7431905913963304,0.7052115241192123,0.6552381919193522,0.6017256708667889,0.5280513699397593,0.4790325676668239,0.4275630120754901,0.3892394199271907,0.3394633133696585,0.2954339939836048,0.2557081840485864,0.20835672495681656,0.19189848998188985,0.15508147629126068,0.1316572131804845,0.15791262555357655,0.18389993118759396,0.235175834683659,0.301281891472982,0.364565467412155,0.4054720844070774,0.4884916578942349,0.5625164589779352,0.6547227015141592,0.7293321213593638,0.8245312558504789,0.8791916108100573,0.9347693251774905,1.0,0.9681232083278841,0.8970894892074464,0.7989650486475819,0.7143731616246622,0.6314076322432571,0.5316634793602875,0.4397877181549088,0.3634853990585727,0.2644949308919404,0.17467144212595187,0.09983100303493941,0.04256449551454722,0.04057779100001557,0.06629924760651651,0.0964809465055314,0.12972694690468956,0.17155129656643098,0.23055177516262493,0.2971112037602097,0.34856256855445356,0.37199416425403964,0.37948287113856516,0.3569489255895766,0.33118467636662086,0.27095898516830186,0.23147875535626472,0.17110767759022938,0.1372472062038126,0.1297359860399041,0.13345370900750098,0.15961670782648607,0.1621716020187245,0.15992371678618333,0.13410686119060333,0.12973183811488287,0.12972994192058795,0.12972994192058795,0.12918116881405606,0.10571323359787854,0.09729234086336458,0.09728677079262216,0.09728677079262216,0.09706950218055788,0.08027941272300065,0.06493221534588312,0.06484691800467335,0.07078808417411953,0.09577846247068766,0.10440434524584052,0.14863340132921987,0.1984868939073765,0.2485109445343463,0.2983854149899603,0.35633749836664386,0.42585363545767674,0.49650902266555086,0.5562425626360845,0.6087864565244532,0.6412971110736292,0.6487729994200677,0.6382989452744772,0.5946122442348001,0.557903127085158,0.5106514272163079
0,1,2,3,4,5,6,7,8,9,10,11,12,13,14,15,16,17,18,19,20,21,22,23,24,25,26,27,28,29,30,31,32,33,34,35,36,37,38,39,40,41,42,43,44,45,46,47,48,49,50,51,52,53,54,55,56,57,58,59,60,61,62,63,64,65,66,67,68,69,70,71,72,73,74,75,76,77,78,79,80,81,82,83,84,85,86,87,88,89,90,91,92,93,94,95,96,97,98,99,100,101,102,103,104,105,106,107,108,109,110,111,112,113,114,115,116,117,118,119,120,121,122,123,124,125,126,127,128,129,130,131,132,133,134,135,136,137,138,139,140,141,142,143,144,145,146,147,148,149,150,151,152,153,154,155,156,157,158,159,160,161,162,163,164,165,166,167,168,169,170,171,172,173,174,175,176,177,178,179,180,181,182,183,184,185,186,187,188,189,190,191,192,193,194,195,196,197,198,199,200,201,202,203,204,205,206,207,208,209,210,211,212,213,214,215,216,217,218,219,220,221,222,223,224,225,226,227,228,229,230,231,232,233,234,235,236,237,238,239,240,241,242,243,244,245,246,247,248,249,250,251,252,253,254
0.10349002626781534,0.10387253206412383,0.11872573792884777,0.14172471396649167,0.1568625176699121,0.1430177492913054,0.14402190314100682,0.16402840560395582,0.1826527582186328,0.2001678545043224,0.22579944778357852,0.25039777309284394,0.2773215766762944,0.3116158052875182,0.33923143828386815,0.3669266618048077,0.38766155575823413,0.40793389876083586,0.39342336746835516,0.3719853342869799,0.34494535752506383,0.31218177661020796,0.2774748811903778,0.24535161494506275,0.2258177079720327,0.1924963215332034,0.16436774468315685,0.15022531987129817,0.12433478657703345,0.1012592238382557,0.06560110677319475,0.020473354627355,0.0494602986937438,0.10317510491528115,0.16943133266943722,0.23157096472340077,0.2893777221337337,0.3583460366989697,0.41596290566690186,0.47833010676581456,0.5466676339790362,0.6010818419281017,0.6674165078435883,0.7366780470821261,0.7953726942899615,0.8566095865152477,0.9252792541866919,0.978309310169819,1.0,0.9674457639428922,0.9092845993039558,0.8400243029822971,0.7706036583969191,0.7011830138115416,0.6317660642604523,0.5651137102655128,0.5108071497927225,0.44263801857194673,0.37321796093003945,0.3054269559145628,0.25141466084660635,0.18465412499623346,0.12919291583937254,0.08765477366266516,0.08427721160277324,0.07598595987163614,0.06470414556675985,0.05381848420970181,0.06437121568936366,0.07894335660605778,0.12295028778762118,0.15684867809304803,0.16931305564732968,0.17030447821881278,0.14224367433173146,0.12399610604645694,0.11929834657913174,0.09455319940354423,0.10061167145937322,0.09079513395733096,0.08820446552857897,0.09415092661216917,0.0860695531439557,0.1012204146520852,0.10392283628709764,0.11808666260309275,0.13822241321743434,0.16521137241943729,0.18357207493275718,0.20573952518081784,0.23329934955794807,0.25439392312290643,0.2868457180729709,0.3106809028300628,0.3380430957510665,0.34907378508190545,0.3315649034639616,0.2976150416630716,0.26880481299279246,0.23620076201452767,0.20413785905446202,0.18064417172476688,0.14817209472646686,0.12237990372295648,0.10700695834195617,0.09458133081897158,0.08082654356482033,0.03391816956019422,0.0,0.054325050099707006,0.10842968621602234,0.1698215526330631,0.22618105661013033,0.292388563811695,0.3466683093857008,0.414845254469141,0.4779563215180138,0.5349139501050892,0.603994111392014,0.6733663873326039,0.7336875475970515,0.7932331448997236,0.8608029188100867,0.9134520756077866,0.9432377118082291,0.9073781713938178,0.843811056114367,0.7882121682513787,0.7191948567309909,0.6497744240974224,0.5811241524153137,0.526321413744808,0.47170589418166653,0.42869572850490245,0.38289955433095324,0.33206536420390975,0.2777066068304346,0.20928589776679063,0.14718407696442704,0.08992949907418124,0.04817583327368524,0.046065708710022246,0.040982733709669095,0.027798187169735034,0.045858227451678335,0.06472824783114195,0.08200685352851877,0.12688593782164048,0.15799477156018904,0.16089841207587519,0.1585208573359953,0.12239598151559283,0.11753490927899879,0.10642492377777035,0.07898064848169195,0.06670010313392982,0.08162612790562918,0.08434834971733407,0.08247224008942666,0.07334482544954657,0.09372378299036033,0.11103877217589986,0.12814328496508187,0.1517096698055722,0.18435073476394237,0.2097118909504747,0.23285807266180392,0.2541846443635234,0.2760426909471452,0.3052976510554961,0.33208138837515877,0.33256435196868006,0.31857457149265267,0.2977925488503885,0.2561704747670399,0.22538434167039245,0.18750340451449254,0.16488538426950106,0.14656141863241645,0.11464273495896782,0.09424889521164204,0.07637992244589853,0.04407807040577838,0.01662425670262735,0.056941907119890445,0.11317223713893299,0.17660323794101984,0.24600658124189945,0.3124257258340295,0.36679462157671905,0.43510582628365757,0.49789497913002156,0.5551356506581828,0.6242351907580428,0.6876686611289835,0.7443410294329729,0.810302746123956,0.8642770639800088,0.9047205134321228,0.8928882483814249,0.8307507432812686,0.7714286641274861,0.7108928617867285,0.6415187841408674,0.572154612988363,0.5102297123836967,0.45219243068556825,0.3830148731136451,0.32055921191588244,0.2630264254939898,0.19384943824705214,0.12444052082013135,0.06273423964826863,0.06196567150682197,0.07423822412411907,0.0800633546799494,0.07139820169169475,0.09684925899838248,0.0898387860259362,0.09599826030718539,0.136442062852268,0.16570500471439287,0.1839015364389769,0.19817340418563667,0.1829736046707806,0.15071608662744707,0.15637258236351048,0.13321793911520263,0.09525262703125348,0.08440171266332364,0.0857251251447324,0.10090072210090639,0.10353134102755135,0.11209676977957894,0.12249931957452809,0.12262760936973027,0.1228157273250221,0.13403099033613364,0.1431087155570525,0.16136370691358737,0.18079745062966612,0.20620696076945766,0.23689939345495636,0.26286627714960176,0.30014507889485165,0.31392468169119203,0.32337331793259727,0.3232251476319905,0.29816765465602524,0.2746325200092459,0.24942507723656515,0.22781050079070742,0.1899808332371804,0.15834326313551106,0.1370379460125788
0,1,2,3,4,5,6,7,8,9,10,11,12,13,14,15,16,17,18,19,20,21,22,23,24,25,26,27,28,29,30,31,32,33,34,35,36,37,38,39,40,41,42,43,44,45,46,47,48,49,50,51,52,53,54,55,56,57,58,59,60,61,62,63,64,65,66,67,68,69,70,71,72,73,74,75,76,77,78,79,80,81,82,83,84,85,86,87,88,89,90,91,92,93,94,95,96,97,98,99,100,101,102,103,104,105,106,107,108,109,110,111,112,113,114,115,116,117,118,119,120,121,122,123,124,125,126,127,128,129,130,131,132,133,134,135,136,137,138,139,140,141,142,143,144,145,146,147,148,149,150,151,152,153,154,155,156,157,158,159,160,161,162,163,164,165,166,167,168,169,170,171,172,173,174,175,176,177,178,179,180,181,182,183,184,185,186,187,188,189,190,191,192,193,194,195,196,197,198,199,200,201,202,203,204,205,206,207,208,209,210,211,212,213,214,215,216,217,218,219,220,221,222,223,224,225,226,227,228,229,230,231,232,233,234,235,236,237,238,239,240,241,242,243,244,245,246,247,248,249,250,251,252,253,254
0.16836780229252568,0.15982530829293307,0.18069172934353706,0.22525494977320015,0.2671608268064656,0.3253704097911756,0.3959405712994375,0.4654588823759749,0.5104056726235049,0.5276294718041976,0.5010045688655458,0.4478514588784206,0.3777953207265785,0.31566672407700125,0.28041327981673003,0.2796462037964611,0.2879164635634339,0.30948239619540807,0.33931145774376414,0.3871502347547482,0.4417512716202632,0.5096728558424681,0.5833086092161386,0.6611945878300682,0.7370363021002646,0.8168533742662536,0.8855029585817205,0.9459095044536019,0.9963488837821606,1.0,0.9565741401242605,0.88860606090749,0.8335378543332332,0.7717169419914249,0.7130597982371496,0.6548048095894741,0.5766880961953129,0.5116382538933655,0.4579216778449533,0.40721126756649806,0.3759871539504642,0.32207366717079644,0.2706159459866342,0.2425036734419468,0.20811597826545292,0.16492417919330382,0.09454011624875847,0.017601497992892234,0.02494365704072088,0.12052056662365551,0.20759078993736324,0.30163713640851597,0.3927272253045624,0.48967693336194973,0.5777946559250697,0.6523042194621569,0.6549845053881374,0.5915272812303769,0.5309606167466372,0.4488320444119047,0.3570324712068116,0.260986909124882,0.17511586179085903,0.09419126315116699,0.03701912539225383,0.029672626727925255,0.030672349239647012,0.05497735645058199,0.09725682109307776,0.13327333539736053,0.19892380368908213,0.25461898104884195,0.3234808123231785,0.3706239451974396,0.4115630143718949,0.40498633912544246,0.3490859273176632,0.29734506352680334,0.24189971074575833,0.22421006113994846,0.22408894413642155,0.23140159963923512,0.2644378482707106,0.30379156512628835,0.34621491925784387,0.40728030694435713,0.4759050506524902,0.5479281979711068,0.6365237288529997,0.701323137649136,0.7786122115022582,0.8516968551264883,0.9084338717319245,0.951744088356441,0.9625401095106483,0.9153577558928871,0.8597851058359147,0.795336318404896,0.7413681107047596,0.6844520139905246,0.6209932350469396,0.5585413147031932,0.4869259354793716,0.43956917045523713,0.3816390077844254,0.3329274153051891,0.28891880191610575,0.25336768969412304,0.2229054737906928,0.1908661028476928,0.14251194508727405,0.0811358170277785,0.009374910591708918,0.04471166561855089,0.14799830623735843,0.23291071464126212,0.3358409783519818,0.43333291404114327,0.5220247720870361,0.6254862530536593,0.687467959980558,0.6840354642825845,0.6062923381087835,0.5202364760474634,0.4325361918204713,0.336109651510629,0.2551403370260461,0.19759349468929877,0.135913530920015,0.13641820747045852,0.14075177921643522,0.14162545192235143,0.17578928356839185,0.21127948266649632,0.2539277480345561,0.3081930431803501,0.3626713051395294,0.4196203012279467,0.4601786137768533,0.47254794438110537,0.4333951880613194,0.3649329111315929,0.30952185671098587,0.25648756016217167,0.22608541528467807,0.24465069262896577,0.25403318711488954,0.28765789021575383,0.3305065362901862,0.3971024716544127,0.4630733325915548,0.5302288580714869,0.6013577934097798,0.6726466948011991,0.7545038243569442,0.8392300395695829,0.8806613847136653,0.8854979074029226,0.8802719868228444,0.8373455243767225,0.7716418275330614,0.7003834957076878,0.6433869870954139,0.5749953149039779,0.5105023556051238,0.45602291049383137,0.3967566465126602,0.3458091908425631,0.295835942248436,0.2600029293771655,0.22851660654848516,0.20785609825839746,0.17822762334185338,0.1265086115101104,0.060697333302464074,0.019130266793539796,0.09950622075301574,0.17951174831991157,0.2423398983221805,0.32074874680710774,0.41811299695080795,0.5158568239188579,0.6041850114989025,0.6930376871580002,0.7097513170420848,0.6384118910572187,0.5473443153948194,0.46300098290511915,0.3704019127032909,0.28134114730207394,0.19621788702594323,0.1224782217615843,0.13117136975550459,0.14071542906514622,0.14158837813891623,0.1652590634917548,0.20118613755928383,0.24943811993999265,0.31062445861701615,0.37717631556266173,0.4235936509151612,0.4685096787083056,0.49368132294048817,0.4669264087672289,0.3979343645401512,0.3400555818335613,0.2845944437854486,0.23419627861839132,0.22411594608683405,0.22416903662961563,0.23853509637356485,0.288290355710938,0.34485272856936877,0.408633046849161,0.46803544083654547,0.5434631487966906,0.6192035226155843,0.6903756489720738,0.7614074563269879,0.8231790140700497,0.857065422717306,0.851566112066803,0.8040417970201279,0.7562304200014953,0.6872254198981196,0.6160646319166867,0.5488203606069453,0.49467581965389407,0.4385584419844344,0.38397399586655023,0.3345631748434066,0.2817814945421242,0.2509363076085611,0.21706879912973598,0.17972338881958105,0.15629247450751382,0.10496654874332378,0.038605744619082394,0.0,0.07502362323380485,0.15909534162019678,0.26288168035709525,0.351000852524753,0.4491346928680686,0.5460211348118582,0.6350643168563499,0.7228053578260445,0.7363528730338471,0.663808986934848,0.5695633530294932,0.47584925373876175,0.3840674496383212,0.2953040620039582,0.20794001438209175,0.13311170490350577
0,1,2,3,4,5,6,7,8,9,10,11,12,13,14,15,16,17,18,19,20,21,22,23,24,25,26,27,28,29,30,31,32,33,34,35,36,37,38,39,40,41,42,43,44,45,46,47,48,49,50,51,52,53,54,55,56,57,58,59,60,61,62,63,64,65,66,67,68,69,70,71,72,73,74,75,76,77,78,79,80,81,82,83,84,85,86,87,88,89,90,91,92,93,94,95,96,97,98,99,100,101,102,103,104,105,106,107,108,109,110,111,112,113,114,115,116,117,118,119,120,121,122,123,124,125,126,127,128,129,130,131,132,133,134,135,136,137,138,139,140,141,142,143,144,145,146,147,148,149,150,151,152,153,154,155,156,157,158,159,160,161,162,163,164,165,166,167,168,169,170,171,172,173,174,175,176,177,178,179,180,181,182,183,184,185,186,187,188,189,190,191,192,193,194,195,196,197,198,199,200,201,202,203,204,205,206,207,208,209,210,211,212,213,214,215,216,217,218,219,220,221,222,223,224,225,226,227,228,229,230,231,232,233,234,235,236,237,238,239,240,241,242,243,244,245,246,247,248,249,250,251,252,253,254
0.8312234481836676,0.890734418712495,0.9248350990713101,0.9218950429494459,0.8620002069812127,0.8166558049037702,0.7590911281976211,0.7199659234597737,0.7069275582082719,0.6896055638679259,0.7298027945484558,0.7545158592220602,0.8006254339369647,0.8314418343512182,0.7515451577351078,0.6800183480398481,0.5964222184253325,0.5579504554384558,0.5814740689323585,0.6008551151547596,0.5703320717283802,0.4842116499329725,0.38598335643705894,0.28773047515351013,0.18947759386996132,0.09146835726692437,0.01836279061342072,0.001525979048649262,0.0,0.0019136611801142678,0.027770924738795166,0.05290382760303203,0.10323058221390458,0.18149759112498742,0.2479836001434128,0.294631393854087,0.38130526660145936,0.44478811148275454,0.5063826078069136,0.5587238781641428,0.5874380360876224,0.5983820838792626,0.5969278885526625,0.5606294006498933,0.5040342992009776,0.43855413713596914,0.3730600822791468,0.31941505884996246,0.3585424804733899,0.4553603369700596,0.5502840083886396,0.5917284918195538,0.5993837199886478,0.6081189998819507,0.6744812078273812,0.7173236329775019,0.7286525280935257,0.7400040893609399,0.7478611481859492,0.7213865753861413,0.7405178192996678,0.7614523117809542,0.782286004092251,0.806718835952859,0.83890394764863,0.8470909224096799,0.8469033143334297,0.8244105845123775,0.7758883002189014,0.7288677126646004,0.7144991915747427,0.6849511971887283,0.6544037885098879,0.631079896934752,0.6495087749429125,0.6724106483089525,0.6574779619790183,0.697905307219842,0.7222735935520799,0.7538483515404852,0.7807212287970513,0.7821036190341992,0.7972926061528209,0.7916977917184811,0.7976439472566836,0.7912376607310332,0.7819571332188167,0.7835760529736673,0.8088369754104017,0.8144578385629897,0.801257985628447,0.7822418797905728,0.7819501268865139,0.7896328669676071,0.8217155122430739,0.8666128654113106,0.9157353053624693,0.9630240849338669,0.9953297859918022,0.9793842225488127,0.9250336914858623,0.8399266262923089,0.7835425997407564,0.7499769062327477,0.7259610483622465,0.7454901149306741,0.7592053287532474,0.802319884516054,0.8438535332219388,0.8448950157123027,0.7644872890367402,0.6835751788954294,0.6191978282157065,0.5876678361946643,0.597480267699761,0.6440982792723933,0.7066952080247537,0.74668525502892,0.7524619343769556,0.77938589502687,0.7631116105816753,0.7610513458811399,0.7934147293789282,0.8147823197765298,0.8382696738100908,0.8471214636354665,0.8593766467005555,0.8779487493890601,0.8505828911804958,0.8469139335696756,0.8176824648798293,0.7734319345824101,0.7406217909200015,0.7078606726415488,0.6846620507962626,0.6888422763052526,0.7153811928955278,0.7168836969087238,0.731364863408209,0.7639086056811513,0.7818309906520415,0.7819335243144563,0.7819335243144563,0.7814365377887853,0.7594046678721131,0.749550749235941,0.7647528761930698,0.7588547988731502,0.7373884925108367,0.7336501147823986,0.7492698179603146,0.7493529199876621,0.7493678689003112,0.7582765370191797,0.8156359572208025,0.86564499189309,0.914785209212833,0.9638828295019168,1.0,0.9601894332538246,0.8991852927772994,0.849812030769896,0.7963556575450772,0.7504731013548236,0.7263063367220957,0.745400427019038,0.7714132211932654,0.8107436402868275,0.8462065186702628,0.8845150887512645,0.8153284002745762,0.7332862062390353,0.6530505081133331,0.6204006929198984,0.6218000876711063,0.6589912676209808,0.7081510482182587,0.7567903572063566,0.7815107462376085,0.7819343233025,0.7849602751385971,0.8118957454952049,0.8145135908608365,0.8145455391414451,0.8259945765221159,0.8468667572199244,0.8573647622592588,0.8508180781094623,0.8273285234249901,0.7930473971147993,0.7330109966531984,0.7084923872290574,0.6762022707620403,0.6519329363696125,0.6310015449523947,0.6231949739889302,0.6544007101444667,0.682741509581227,0.6887377372811239,0.7154620103999338,0.7309254113858996,0.7538449164242182,0.7588671014045207,0.7504801897021034,0.7750537777169324,0.7814740947879164,0.7608879310515819,0.7720961794075079,0.7520692079674891,0.7493536191022008,0.7493529199876621,0.7493529199876621,0.7493532464971997,0.7509378751752305,0.7845081834321519,0.8472537354760084,0.8874252855916263,0.938268238642264,0.9306714298609204,0.8748670176410878,0.8289705599852599,0.7704177311644065,0.7487863866691713,0.7247169412291656,0.7252479472058413,0.769495245303462,0.810176204206865,0.8273409215020857,0.784319916246881,0.7035895098571032,0.622191552937541,0.588117558593269,0.5960841353748414,0.6415849443849737,0.7034612913056542,0.7460427954423814,0.7690435477113171,0.7553158347059874,0.7594843063518883,0.7814480750305872,0.782342260887666,0.8041463764946384,0.8364690326098678,0.8470978411851879,0.8580492129503199,0.8720564383042007,0.8479042952499096,0.8282216115545964,0.7942035976110713,0.7536152037108703,0.728541655474892,0.6866381537103861,0.6358387785767716,0.6312915042012444,0.6514717749774732
0,1,2,3,4,5,6,7,8,9,10,11,12,13,14,15,16,17,18,19,20,21,22,23,24,25,26,27,28,29,30,31,32,33,34,35,36,37,38,39,40,41,42,43,44,45,46,47,48,49,50,51,52,53,54,55,56,57,58,59,60,61,62,63,64,65,66,67,68,69,70,71,72,73,74,75,76,77,78,79,80,81,82,83,84,85,86,87,88,89,90,91,92,93,94,95,96,97,98,99,100,101,102,103,104,105,106,107,108,109,110,111,112,113,114,115,116,117,118,119,120,121,122,123,124,125,126,127,128,129,130,131,132,133,134,135,136,137,138,139,140,141,142,143,144,145,146,147,148,149,150,151,152,153,154,155,156,157,158,159,160,161,162,163,164,165,166,167,168,169,170,171,172,173,174,175,176,177,178,179,180,181,182,183,184,185,186,187,188,189,190,191,192,193,194,195,196,197,198,199,200,201,202,203,204,205,206,207,208,209,210,211,212,213,214,215,216,217,218,219,220,221,222,223,224,225,226,227,228,229,230,231,232,233,234,235,236,237,238,239,240,241,242,243,244,245,246,247,248,249,250,251,252,253,254
0.8312234481836676,0.890734418712495,0.9248350990713101,0.9218950429494459,0.8620002069812127,0.8166558049037702,0.7590911281976211,0.7199659234597737,0.7069275582082719,0.6896055638679259,0.7298027945484558,0.7545158592220602,0.8006254339369647,0.8314418343512182,0.7515451577351078,0.6800183480398481,0.5964222184253325,0.5579504554384558,0.5814740689323585,0.6008551151547596,0.5703320717283802,0.4842116499329725,0.38598335643705894,0.28773047515351013,0.18947759386996132,0.09146835726692437,0.01836279061342072,0.001525979048649262,0.0,0.0019136611801142678,0.027770924738795166,0.05290382760303203,0.10323058221390458,0.18149759112498742,0.2479836001434128,0.294631393854087,0.38130526660145936,0.44478811148275454,0.5063826078069136,0.5587238781641428,0.5874380360876224,0.5983820838792626,0.5969278885526625,0.5606294006498933,0.5040342992009776,0.43855413713596914,0.3730600822791468,0.31941505884996246,0.3585424804733899,0.4553603369700596,0.5502840083886396,0.5917284918195538,0.5993837199886478,0.6081189998819507,0.6744812078273812,0.7173236329775019,0.7286525280935257,0.7400040893609399,0.7478611481859492,0.7213865753861413,0.7405178192996678,0.7614523117809542,0.782286004092251,0.806718835952859,0.83890394764863,0.8470909224096799,0.8469033143334297,0.8244105845123775,0.7758883002189014,0.7288677126646004,0.7144991915747427,0.6849511971887283,0.6544037885098879,0.631079896934752,0.6495087749429125,0.6724106483089525,0.6574779619790183,0.697905307219842,0.7222735935520799,0.7538483515404852,0.7807212287970513,0.7821036190341992,0.7972926061528209,0.7916977917184811,0.7976439472566836,0.7912376607310332,0.7819571332188167,0.7835760529736673,0.8088369754104017,0.8144578385629897,0.801257985628447,0.7822418797905728,0.7819501268865139,0.7896328669676071,0.8217155122430739,0.8666128654113106,0.9157353053624693,0.9630240849338669,0.9953297859918022,0.9793842225488127,0.9250336914858623,0.8399266262923089,0.7835425997407564,0.7499769062327477,0.7259610483622465,0.7454901149306741,0.7592053287532474,0.802319884516054,0.8438535332219388,0.8448950157123027,0.7644872890367402,0.6835751788954294,0.6191978282157065,0.5876678361946643,0.597480267699761,0.6440982792723933,0.7066952080247537,0.74668525502892,0.7524619343769556,0.77938589502687,0.7631116105816753,0.7610513458811399,0.7934147293789282,0.8147823197765298,0.8382696738100908,0.8471214636354665,0.8593766467005555,0.8779487493890601,0.8505828911804958,0.8469139335696756,0.8176824648798293,0.7734319345824101,0.7406217909200015,0.7078606726415488,0.6846620507962626,0.6888422763052526,0.7153811928955278,0.7168836969087238,0.731364863408209,0.7639086056811513,0.7818309906520415,0.7819335243144563,0.7819335243144563,0.7814365377887853,0.7594046678721131,0.749550749235941,0.7647528761930698,0.7588547988731502,0.7373884925108367,0.7336501147823986,0.7492698179603146,0.7493529199876621,0.7493678689003112,0.7582765370191797,0.8156359572208025,0.86564499189309,0.914785209212833,0.9638828295019168,1.0,0.9601894332538246,0.8991852927772994,0.849812030769896,0.7963556575450772,0.7504731013548236,0.7263063367220957,0.745400427019038,0.7714132211932654,0.8107436402868275,0.8462065186702628,0.8845150887512645,0.8153284002745762,0.7332862062390353,0.6530505081133331,0.6204006929198984,0.6218000876711063,0.6589912676209808,0.7081510482182587,0.7567903572063566,0.7815107462376085,0.7819343233025,0.7849602751385971,0.8118957454952049,0.8145135908608365,0.8145455391414451,0.8259945765221159,0.8468667572199244,0.8573647622592588,0.8508180781094623,0.8273285234249901,0.7930473971147993,0.7330109966531984,0.7084923872290574,0.6762022707620403,0.6519329363696125,0.6310015449523947,0.6231949739889302,0.6544007101444667,0.682741509581227,0.6887377372811239,0.7154620103999338,0.7309254113858996,0.7538449164242182,0.7588671014045207,0.7504801897021034,0.7750537777169324,0.7814740947879164,0.7608879310515819,0.7720961794075079,0.7520692079674891,0.7493536191022008,0.7493529199876621,0.7493529199876621,0.7493532464971997,0.7509378751752305,0.7845081834321519,0.8472537354760084,0.8874252855916263,0.938268238642264,0.9306714298609204,0.8748670176410878,0.8289705599852599,0.7704177311644065,0.7487863866691713,0.7247169412291656,0.7252479472058413,0.769495245303462,0.810176204206865,0.8273409215020857,0.784319916246881,0.7035895098571032,0.622191552937541,0.588117558593269,0.5960841353748414,0.6415849443849737,0.7034612913056542,0.7460427954423814,0.7690435477113171,0.7553158347059874,0.7594843063518883,0.7814480750305872,0.782342260887666,0.8041463764946384,0.8364690326098678,0.8470978411851879,0.8580492129503199,0.8720564383042007,0.8479042952499096,0.8282216115545964,0.7942035976110713,0.7536152037108703,0.728541655474892,0.6866381537103861,0.6358387785767716,0.6312915042012444,0.6514717749774732
0,1,2,3,4,5,6,7,8,9,10,11,12,13,14,15,16,17,18,19,20,21,22,23,24,25,26,27,28,29,30,31,32,33,34,35,36,37,38,39,40,41,42,43,44,45,46,47,48,49,50,51,52,53,54,55,56,57,58,59,60,61,62,63,64,65,66,67,68,69,70,71,72,73,74,75,76,77,78,79,80,81,82,83,84,85,86,87,88,89,90,91,92,93,94,95,96,97,98,99,100,101,102,103,104,105,106,107,108,109,110,111,112,113,114,115,116,117,118,119,120,121,122,123,124,125,126,127,128,129,130,131,132,133,134,135,136,137,138,139,140,141,142,143,144,145,146,147,148,149,150,151,152,153,154,155,156,157,158,159,160,161,162,163,164,165,166,167,168,169,170,171,172,173,174,175,176,177,178,179,180,181,182,183,184,185,186,187,188,189,190,191,192,193,194,195,196,197,198,199,200,201,202,203,204,205,206,207,208,209,210,211,212,213,214,215,216,217,218,219,220,221,222,223,224,225,226,227,228,229,230,231,232,233,234,235,236,237,238,239,240,241,242,243,244,245,246,247,248,249,250,251,252,253,254
0.6293333475537519,0.5952505676508677,0.5642922447995566,0.5399373312911315,0.5015887241306514,0.5035740418205048,0.527796262443057,0.5015468515021144,0.46997133495889987,0.44763503331915544,0.4628806406012034,0.46303956754849196,0.46303807574015643,0.4604288776424328,0.430621742777924,0.4009339960893117,0.3935098291670611,0.3654955439602512,0.34688709519074923,0.2944275436798591,0.2363508703367847,0.17827161616529175,0.12006626850127411,0.08760573272056682,0.05995300393997294,0.049490748324036105,0.0,0.028498700449365977,0.10274338085748624,0.18975791542611908,0.25084345736348723,0.3315811418545431,0.3919570720530894,0.46113620158504975,0.48980931626193414,0.4508247071244673,0.37830444733418744,0.34396670202790514,0.36130061724379825,0.3436917677884539,0.32806589658419405,0.3113063348819365,0.32698026540294567,0.34965381027939646,0.377807561018356,0.4080887751049307,0.4588304988311096,0.4776383380308662,0.5209141603816194,0.5592448867960389,0.5640242063884662,0.5614919609038989,0.5337256786726225,0.5539854131520805,0.5365315861126101,0.5002051833053072,0.48227215375067,0.46897952540199395,0.4952752409681498,0.4963733986353214,0.47500490357133973,0.4879515442937148,0.49669159023917686,0.4965930662757492,0.4815188731614386,0.46314991968127384,0.46303956754849196,0.464462282699329,0.4973731181569816,0.5227403965926678,0.4853230763384593,0.4798048204180354,0.4965693087242844,0.4966989357883147,0.48920870395423055,0.4635998857720356,0.4630517407045085,0.4764358752047819,0.49354822173630364,0.4661414493948559,0.49974296086335634,0.530076604039083,0.5347862958062866,0.5621252895102193,0.5646006180101217,0.5903835239098019,0.5990851073531056,0.6319649479229836,0.6634572369168019,0.6650164534509511,0.6648987528429675,0.6491400324330723,0.6314331364490036,0.6299936446632399,0.5997338747395871,0.5640647618271792,0.5346862899848599,0.5303649724113937,0.5286613541407412,0.5044195156217999,0.5275316594478738,0.5303636148658084,0.5303651961826441,0.530378085406662,0.5444560571418515,0.5638655897948635,0.5638921423523833,0.5456468371987944,0.5037342718381463,0.4865825813118647,0.4185789708381735,0.3595920578368714,0.3015145341630463,0.2473812865994054,0.2275513592186078,0.22740631194096572,0.23632746830450468,0.31115576217278385,0.3996742700104665,0.4882392348224771,0.5612409100715352,0.6318939254089893,0.719761045832227,0.7822939644598481,0.8309908509878978,0.8221243925983606,0.7641736771967409,0.6919314884595904,0.6049414377683373,0.5438965000501899,0.5045041554065381,0.5331560115475895,0.5581089749108905,0.5323973446545551,0.5435899167496654,0.5638551085221586,0.5640383934857347,0.5759193673768515,0.6250606368161815,0.679364532178873,0.7086409310061645,0.7316522360613131,0.7122993785247376,0.668070224597197,0.6342247144903723,0.6565908905178999,0.6650081613950096,0.6550999498499763,0.6035881610223974,0.597692495642133,0.5975940867542251,0.5835466845832897,0.5641846448589822,0.5639501387280168,0.5514436390401478,0.5355873869784693,0.5623241684578177,0.5640421080884899,0.5795046960864259,0.5975451741482676,0.5977035350238147,0.6116084576975673,0.6311906139828114,0.6366747911503596,0.6634305111036687,0.672008898865081,0.6893534418568894,0.6655240832104719,0.6713376636817046,0.697433711996676,0.6987921911356123,0.7177432082448734,0.7612140555738369,0.7973722387329873,0.799676736159685,0.81121789319472,0.8336399302801123,0.8608941427571741,0.8906619806119496,0.9011826214676866,0.9268252900762235,0.9339260103047033,0.9117443946034491,0.8996957277607134,0.8718518126078942,0.8364323357424075,0.8333295702789973,0.8312029843669384,0.8073848444754876,0.8307610393276601,0.8081103722361744,0.770460008003524,0.7660054931255145,0.770951026588313,0.7970987769796691,0.7746596913371313,0.7931498168595095,0.7996259108252302,0.7894156531436458,0.7699692494313206,0.7938541516514279,0.7440275994596295,0.6853693181265088,0.6267343380632582,0.5754641992995024,0.531111575932969,0.49603126438546585,0.466835630788216,0.46314949665047234,0.4875908036451957,0.5676488207264674,0.6281183013947569,0.7143797048563982,0.7915332895428557,0.8575976088796748,0.9147233030337754,0.9299190045080765,0.8900889393698863,0.8180807937484991,0.7808316121520873,0.7987357681666758,0.7826364358451308,0.7660329690212215,0.7705853136419751,0.8084431705848134,0.832884667696292,0.8520685596411592,0.9214895962443057,0.9342847531474314,0.9504760048570411,0.9991503088356914,1.0,0.9723213026781066,0.9402408086736216,0.9045392742068437,0.923618258483458,0.9083334331979174,0.8710886180148352,0.8535249967172156,0.8110011194296538,0.7827041438176225,0.7660355402560262,0.7658927858063063,0.7505895069237152,0.7303405493415704,0.706394492009589,0.7265948174368919,0.7013659485564325,0.7241403443448649,0.7197993897877399,0.6757005922309585,0.6478797962701375,0.6646627229350761,0.6650164534509511,0.6650164534509511
0,1,2,3,4,5,6,7,8,9,10,11,12,13,14,15,16,17,18,19,20,21,22,23,24,25,26,27,28,29,30,31,32,33,34,35,36,37,38,39,40,41,42,43,44,45,46,47,48,49,50,51,52,53,54,55,56,57,58,59,60,61,62,63,64,65,66,67,68,69,70,71,72,73,74,75,76,77,78,79,80,81,82,83,84,85,86,87,88,89,90,91,92,93,94,95,96,97,98,99,100,101,102,103,104,105,106,107,108,109,110,111,112,113,114,115,116,117,118,119,120,121,122,123,124,125,126,127,128,129,130,131,132,133,134,135,136,137,138,139,140,141,142,143,144,145,146,147,148,149,150,151,152,153,154,155,156,157,158,159,160,161,162,163,164,165,166,167,168,169,170,171,172,173,174,175,176,177,178,179,180,181,182,183,184,185,186,187,188,189,190,191,192,193,194,195,196,197,198,199,200,201,202,203,204,205,206,207,208,209,210,211,212,213,214,215,216,217,218,219,220,221,222,223,224,225,226,227,228,229,230,231,232,233,234,235,236,237,238,239,240,241,242,243,244,245,246,247,248,249,250,251,252,253,254
0.6293333475537519,0.5952505676508677,0.5642922447995566,0.5399373312911315,0.5015887241306514,0.5035740418205048,0.527796262443057,0.5015468515021144,0.46997133495889987,0.44763503331915544,0.4628806406012034,0.46303956754849196,0.46303807574015643,0.4604288776424328,0.430621742777924,0.4009339960893117,0.3935098291670611,0.3654955439602512,0.34688709519074923,0.2944275436798591,0.2363508703367847,0.17827161616529175,0.12006626850127411,0.08760573272056682,0.05995300393997294,0.049490748324036105,0.0,0.028498700449365977,0.10274338085748624,0.18975791542611908,0.25084345736348723,0.3315811418545431,0.3919570720530894,0.46113620158504975,0.48980931626193414,0.4508247071244673,0.37830444733418744,0.34396670202790514,0.36130061724379825,0.3436917677884539,0.32806589658419405,0.3113063348819365,0.32698026540294567,0.34965381027939646,0.377807561018356,0.4080887751049307,0.4588304988311096,0.4776383380308662,0.5209141603816194,0.5592448867960389,0.5640242063884662,0.5614919609038989,0.5337256786726225,0.5539854131520805,0.5365315861126101,0.5002051833053072,0.48227215375067,0.46897952540199395,0.4952752409681498,0.4963733986353214,0.47500490357133973,0.4879515442937148,0.49669159023917686,0.4965930662757492,0.4815188731614386,0.46314991968127384,0.46303956754849196,0.464462282699329,0.4973731181569816,0.5227403965926678,0.4853230763384593,0.4798048204180354,0.4965693087242844,0.4966989357883147,0.48920870395423055,0.4635998857720356,0.4630517407045085,0.4764358752047819,0.49354822173630364,0.4661414493948559,0.49974296086335634,0.530076604039083,0.5347862958062866,0.5621252895102193,0.5646006180101217,0.5903835239098019,0.5990851073531056,0.6319649479229836,0.6634572369168019,0.6650164534509511,0.6648987528429675,0.6491400324330723,0.6314331364490036,0.6299936446632399,0.5997338747395871,0.5640647618271792,0.5346862899848599,0.5303649724113937,0.5286613541407412,0.5044195156217999,0.5275316594478738,0.5303636148658084,0.5303651961826441,0.530378085406662,0.5444560571418515,0.5638655897948635,0.5638921423523833,0.5456468371987944,0.5037342718381463,0.4865825813118647,0.4185789708381735,0.3595920578368714,0.3015145341630463,0.2473812865994054,0.2275513592186078,0.22740631194096572,0.23632746830450468,0.31115576217278385,0.3996742700104665,0.4882392348224771,0.5612409100715352,0.6318939254089893,0.719761045832227,0.7822939644598481,0.8309908509878978,0.8221243925983606,0.7641736771967409,0.6919314884595904,0.6049414377683373,0.5438965000501899,0.5045041554065381,0.5331560115475895,0.5581089749108905,0.5323973446545551,0.5435899167496654,0.5638551085221586,0.5640383934857347,0.5759193673768515,0.6250606368161815,0.679364532178873,0.7086409310061645,0.7316522360613131,0.7122993785247376,0.668070224597197,0.6342247144903723,0.6565908905178999,0.6650081613950096,0.6550999498499763,0.6035881610223974,0.597692495642133,0.5975940867542251,0.5835466845832897,0.5641846448589822,0.5639501387280168,0.5514436390401478,0.5355873869784693,0.5623241684578177,0.5640421080884899,0.5795046960864259,0.5975451741482676,0.5977035350238147,0.6116084576975673,0.6311906139828114,0.6366747911503596,0.6634305111036687,0.672008898865081,0.6893534418568894,0.6655240832104719,0.6713376636817046,0.697433711996676,0.6987921911356123,0.7177432082448734,0.7612140555738369,0.7973722387329873,0.799676736159685,0.81121789319472,0.8336399302801123,0.8608941427571741,0.8906619806119496,0.9011826214676866,0.9268252900762235,0.9339260103047033,0.9117443946034491,0.8996957277607134,0.8718518126078942,0.8364323357424075,0.8333295702789973,0.8312029843669384,0.8073848444754876,0.8307610393276601,0.8081103722361744,0.770460008003524,0.7660054931255145,0.770951026588313,0.7970987769796691,0.7746596913371313,0.7931498168595095,0.7996259108252302,0.7894156531436458,0.7699692494313206,0.7938541516514279,0.7440275994596295,0.6853693181265088,0.6267343380632582,0.5754641992995024,0.531111575932969,0.49603126438546585,0.466835630788216,0.46314949665047234,0.4875908036451957,0.5676488207264674,0.6281183013947569,0.7143797048563982,0.7915332895428557,0.8575976088796748,0.9147233030337754,0.9299190045080765,0.8900889393698863,0.8180807937484991,0.7808316121520873,0.7987357681666758,0.7826364358451308,0.7660329690212215,0.7705853136419751,0.8084431705848134,0.832884667696292,0.8520685596411592,0.9214895962443057,0.9342847531474314,0.9504760048570411,0.9991503088356914,1.0,0.9723213026781066,0.9402408086736216,0.9045392742068437,0.923618258483458,0.9083334331979174,0.8710886180148352,0.8535249967172156,0.8110011194296538,0.7827041438176225,0.7660355402560262,0.7658927858063063,0.7505895069237152,0.7303405493415704,0.706394492009589,0.7265948174368919,0.7013659485564325,0.7241403443448649,0.7197993897877399,0.6757005922309585,0.6478797962701375,0.6646627229350761,0.6650164534509511,0.6650164534509511
0,1,2,3,4,5,6,7,8,9,10,11,12,13,14,15,16,17,18,19,20,21,22,23,24,25,26,27,28,29,30,31,32,33,34,35,36,37,38,39,40,41,42,43,44,45,46,47,48,49,50,51,52,53,54,55,56,57,58,59,60,61,62,63,64,65,66,67,68,69,70,71,72,73,74,75,76,77,78,79,80,81,82,83,84,85,86,87,88,89,90,91,92,93,94,95,96,97,98,99,100,101,102,103,104,105,106,107,108,109,110,111,112,113,114,115,116,117,118,119,120,121,122,123,124,125,126,127,128,129,130,131,132,133,134,135,136,137,138,139,140,141,142,143,144,145,146,147,148,149,150,151,152,153,154,155,156,157,158,159,160,161,162,163,164,165,166,167,168,169,170,171,172,173,174,175,176,177,178,179,180,181,182,183,184,185,186,187,188,189,190,191,192,193,194,195,196,197,198,199,200,201,202,203,204,205,206,207,208,209,210,211,212,213,214,215,216,217,218,219,220,221,222,223,224,225,226,227,228,229,230,231,232,233,234,235,236,237,238,239,240,241,242,243,244,245,246,247,248,249,250,251,252,253,254
0.07664890992937412,0.07354985068315312,0.07654999208909619,0.19258729833246058,0.31416355607600543,0.4134973533381068,0.540846922737642,0.6678446892259648,0.766254842168288,0.8837706633722702,0.953339065342881,0.9417174340530838,0.846916469164003,0.7371772218844326,0.6084131601654708,0.47997045921562886,0.3744288727774059,0.2601218494272901,0.13401323981558022,0.040955485023429716,0.0,0.0012720516439452823,0.05066068594604367,0.08109442998054561,0.1476294130420639,0.23104920353413316,0.29300687004564807,0.30776812708219126,0.2932212771197671,0.2314930902825747,0.14811321080903284,0.08143485385798499,0.08134129883498087,0.10862377431033021,0.08311895539513436,0.10293507524124212,0.07811434331416489,0.07668162255170241,0.0912272509777301,0.1433963196014254,0.23446615231929346,0.27423335339759447,0.3244451190140225,0.3463233973719575,0.3464060136957299,0.3332303012709277,0.2789456934272563,0.22932984138498735,0.19250996793716357,0.15774165296728349,0.11704665271253933,0.10200269152030739,0.060259185165794094,0.044931900906926,0.061247387216639915,0.03930982577341258,0.06625113625300205,0.07699639489073107,0.10723258590039553,0.20574802347587795,0.33406732639132297,0.46300229095658363,0.5919372914216128,0.7204692861255797,0.82403410875445,0.9379831988800396,1.0,0.9715727154825045,0.865484936178146,0.7628688193359956,0.6344640526297392,0.5175873187296496,0.414656208286468,0.2862081199818167,0.16967694992310633,0.06800969758069009,0.007974604608951275,0.035867761870331805,0.03877791497592753,0.07226594326120139,0.1339469830451243,0.19457155554111605,0.28859785976856056,0.339561908600011,0.31019033927629724,0.28303439984042544,0.2301725175039806,0.16931508856992217,0.09501951241175277,0.0767296342635948,0.07665075380697672,0.07667007607657084,0.08692268856977492,0.11543246441918598,0.14476864562749459,0.18698340924754042,0.25003345893461315,0.3317262789303088,0.38667432632489085,0.43461106370593416,0.4574680605863808,0.4107783430601195,0.3733783243027098,0.30165257607780216,0.25225822806653486,0.19966891511087503,0.16241599097374504,0.089534158889232,0.07608276695591787,0.051606023125128075,0.038134747440668804,0.03810629294111312,0.03810629294111312,0.038112979911167244,0.04716039245453629,0.1408999038832066,0.2649253647008827,0.36299136002553656,0.4888509985142724,0.6167370538985049,0.7177194476209596,0.8371276813920288,0.9595938783349647,0.9965623761114664,0.9326911688687813,0.8276271669643851,0.7108709734045764,0.6081263388180842,0.47962941519989677,0.35153116678110585,0.2496908436822043,0.13193471864628847,0.04368237114367268,0.010514842668111868,0.028407162542050557,0.06884103105589467,0.08955076263069373,0.15053447185688018,0.24448959736464193,0.30376645769162547,0.3353052289195313,0.3160347996333819,0.2524899715811122,0.1880145785322238,0.12365960539810406,0.07912380753500337,0.07665127724876086,0.07665048745385583,0.07445438861090725,0.05198506074834075,0.07526677311699626,0.092177517422523,0.14616536853437712,0.1977102788754994,0.2724006253106035,0.3374629761209995,0.3695892912674994,0.3651730623524312,0.3341662072249614,0.2866038099473851,0.22383074004586412,0.18911911522278668,0.15650707969784072,0.14411433616222347,0.11181448885467926,0.09138545247721996,0.09352131975648614,0.07676282169485393,0.07636043264387737,0.05522794806824649,0.03823269509632432,0.056734141742302846,0.16651141512044365,0.2927047068111035,0.39024628464956557,0.5147007498325609,0.6408752879764021,0.7383468228395822,0.8549349509285706,0.9173462795444651,0.8835031616655655,0.7766188310010733,0.6489944706283328,0.5491551038081228,0.42852746076676773,0.29961532577155925,0.17966888300779882,0.08005179339415314,0.0028682529839496596,0.0010100643491028904,0.030450592915775232,0.06223136689636277,0.10072045659174478,0.1916472647866314,0.2549579625420355,0.30379916271326923,0.33974054076365334,0.291412915171521,0.2340414539321234,0.16495267385942203,0.08854822053882305,0.07598464479688527,0.05044804939466996,0.04291430005352659,0.07009784989691958,0.05198402635210808,0.07687522890407283,0.10789183696753568,0.15835633114003045,0.19796964949693674,0.25981558711838826,0.3053238248281991,0.33988359866917417,0.3133453563901103,0.2922904401236375,0.2669332738154875,0.23187901807786915,0.19372106528788802,0.16089152910319537,0.1291869475456222,0.1152248754641585,0.11461182520090318,0.09019970276920208,0.08068913269400824,0.11118121957349114,0.08979017279619672,0.09484467626719262,0.19728658420680922,0.29638557908979823,0.4234374225446329,0.5348813236119057,0.6431271590015308,0.7707734601646594,0.8695796854892173,0.9228057806665504,0.8950867652526799,0.7775415933609171,0.648620322106706,0.5196853216416759,0.3908445809765908,0.27711440786653885,0.1711823642222834,0.059737334440504775,0.03818446667564146,0.053634745787180194,0.07850773650541765,0.11418276742305888,0.1850902915616386,0.2616998758023943,0.3150697083568339,0.34568653752248046,0.3285375727150326,0.2535992948382102,0.18619025358201213,0.1204586443517579
0,1,2,3,4,5,6,7,8,9,10,11,12,13,14,15,16,17,18,19,20,21,22,23,24,25,26,27,28,29,30,31,32,33,34,35,36,37,38,39,40,41,42,43,44,45,46,47,48,49,50,51,52,53,54,55,56,57,58,59,60,61,62,63,64,65,66,67,68,69,70,71,72,73,74,75,76,77,78,79,80,81,82,83,84,85,86,87,88,89,90,91,92,93,94,95,96,97,98,99,100,101,102,103,104,105,106,107,108,109,110,111,112,113,114,115,116,117,118,119,120,121,122,123,124,125,126,127,128,129,130,131,132,133,134,135,136,137,138,139,140,141,142,143,144,145,146,147,148,149,150,151,152,153,154,155,156,157,158,159,160,161,162,163,164,165,166,167,168,169,170,171,172,173,174,175,176,177,178,179,180,181,182,183,184,185,186,187,188,189,190,191,192,193,194,195,196,197,198,199,200,201,202,203,204,205,206,207,208,209,210,211,212,213,214,215,216,217,218,219,220,221,222,223,224,225,226,227,228,229,230,231,232,233,234,235,236,237,238,239,240,241,242,243,244,245,246,247,248,249,250,251,252,253,254
0.07664890992937412,0.07354985068315312,0.07654999208909619,0.19258729833246058,0.31416355607600543,0.4134973533381068,0.540846922737642,0.6678446892259648,0.766254842168288,0.8837706633722702,0.953339065342881,0.9417174340530838,0.846916469164003,0.7371772218844326,0.6084131601654708,0.47997045921562886,0.3744288727774059,0.2601218494272901,0.13401323981558022,0.040955485023429716,0.0,0.0012720516439452823,0.05066068594604367,0.08109442998054561,0.1476294130420639,0.23104920353413316,0.29300687004564807,0.30776812708219126,0.2932212771197671,0.2314930902825747,0.14811321080903284,0.08143485385798499,0.08134129883498087,0.10862377431033021,0.08311895539513436,0.10293507524124212,0.07811434331416489,0.07668162255170241,0.0912272509777301,0.1433963196014254,0.23446615231929346,0.27423335339759447,0.3244451190140225,0.3463233973719575,0.3464060136957299,0.3332303012709277,0.2789456934272563,0.22932984138498735,0.19250996793716357,0.15774165296728349,0.11704665271253933,0.10200269152030739,0.060259185165794094,0.044931900906926,0.061247387216639915,0.03930982577341258,0.06625113625300205,0.07699639489073107,0.10723258590039553,0.20574802347587795,0.33406732639132297,0.46300229095658363,0.5919372914216128,0.7204692861255797,0.82403410875445,0.9379831988800396,1.0,0.9715727154825045,0.865484936178146,0.7628688193359956,0.6344640526297392,0.5175873187296496,0.414656208286468,0.2862081199818167,0.16967694992310633,0.06800969758069009,0.007974604608951275,0.035867761870331805,0.03877791497592753,0.07226594326120139,0.1339469830451243,0.19457155554111605,0.28859785976856056,0.339561908600011,0.31019033927629724,0.28303439984042544,0.2301725175039806,0.16931508856992217,0.09501951241175277,0.0767296342635948,0.07665075380697672,0.07667007607657084,0.08692268856977492,0.11543246441918598,0.14476864562749459,0.18698340924754042,0.25003345893461315,0.3317262789303088,0.38667432632489085,0.43461106370593416,0.4574680605863808,0.4107783430601195,0.3733783243027098,0.30165257607780216,0.25225822806653486,0.19966891511087503,0.16241599097374504,0.089534158889232,0.07608276695591787,0.051606023125128075,0.038134747440668804,0.03810629294111312,0.03810629294111312,0.038112979911167244,0.04716039245453629,0.1408999038832066,0.2649253647008827,0.36299136002553656,0.4888509985142724,0.6167370538985049,0.7177194476209596,0.8371276813920288,0.9595938783349647,0.9965623761114664,0.9326911688687813,0.8276271669643851,0.7108709734045764,0.6081263388180842,0.47962941519989677,0.35153116678110585,0.2496908436822043,0.13193471864628847,0.04368237114367268,0.010514842668111868,0.028407162542050557,0.06884103105589467,0.08955076263069373,0.15053447185688018,0.24448959736464193,0.30376645769162547,0.3353052289195313,0.3160347996333819,0.2524899715811122,0.1880145785322238,0.12365960539810406,0.07912380753500337,0.07665127724876086,0.07665048745385583,0.07445438861090725,0.05198506074834075,0.07526677311699626,0.092177517422523,0.14616536853437712,0.1977102788754994,0.2724006253106035,0.3374629761209995,0.3695892912674994,0.3651730623524312,0.3341662072249614,0.2866038099473851,0.22383074004586412,0.18911911522278668,0.15650707969784072,0.14411433616222347,0.11181448885467926,0.09138545247721996,0.09352131975648614,0.07676282169485393,0.07636043264387737,0.05522794806824649,0.03823269509632432,0.056734141742302846,0.16651141512044365,0.2927047068111035,0.39024628464956557,0.5147007498325609,0.6408752879764021,0.7383468228395822,0.8549349509285706,0.9173462795444651,0.8835031616655655,0.7766188310010733,0.6489944706283328,0.5491551038081228,0.42852746076676773,0.29961532577155925,0.17966888300779882,0.08005179339415314,0.0028682529839496596,0.0010100643491028904,0.030450592915775232,0.06223136689636277,0.10072045659174478,0.1916472647866314,0.2549579625420355,0.30379916271326923,0.33974054076365334,0.291412915171521,0.2340414539321234,0.16495267385942203,0.08854822053882305,0.07598464479688527,0.05044804939466996,0.04291430005352659,0.07009784989691958,0.05198402635210808,0.07687522890407283,0.10789183696753568,0.15835633114003045,0.19796964949693674,0.25981558711838826,0.3053238248281991,0.33988359866917417,0.3133453563901103,0.2922904401236375,0.2669332738154875,0.23187901807786915,0.19372106528788802,0.16089152910319537,0.1291869475456222,0.1152248754641585,0.11461182520090318,0.09019970276920208,0.08068913269400824,0.11118121957349114,0.08979017279619672,0.09484467626719262,0.19728658420680922,0.29638557908979823,0.4234374225446329,0.5348813236119057,0.6431271590015308,0.7707734601646594,0.8695796854892173,0.9228057806665504,0.8950867652526799,0.7775415933609171,0.648620322106706,0.5196853216416759,0.3908445809765908,0.27711440786653885,0.1711823642222834,0.059737334440504775,0.03818446667564146,0.053634745787180194,0.07850773650541765,0.11418276742305888,0.1850902915616386,0.2616998758023943,0.3150697083568339,0.34568653752248046,0.3285375727150326,0.2535992948382102,0.18619025358201213,0.1204586443517579
0,1,2,3,4,5,6,7,8,9,10,11,12,13,14,15,16,17,18,19,20,21,22,23,24,25,26,27,28,29,30,31,32,33,34,35,36,37,38,39,40,41,42,43,44,45,46,47,48,49,50,51,52,53,54,55,56,57,58,59,60,61,62,63,64,65,66,67,68,69,70,71,72,73,74,75,76,77,78,79,80,81,82,83,84,85,86,87,88,89,90,91,92,93,94,95,96,97,98,99,100,101,102,103,104,105,106,107,108,109,110,111,112,113,114,115,116,117,118,119,120,121,122,123,124,125,126,127,128,129,130,131,132,133,134,135,136,137,138,139,140,141,142,143,144,145,146,147,148,149,150,151,152,153,154,155,156,157,158,159,160,161,162,163,164,165,166,167,168,169,170,171,172,173,174,175,176,177,178,179,180,181,182,183,184,185,186,187,188,189,190,191,192,193,194,195,196,197,198,199,200,201,202,203,204,205,206,207,208,209,210,211,212,213,214,215,216,217,218,219,220,221,222,223,224,225,226,227,228,229,230,231,232,233,234,235,236,237,238,239,240,241,242,243,244,245,246,247,248,249,250,251,252,253,254
0.20668928775537054,0.21734150986688494,0.2628223621112551,0.300849777293807,0.3265820397157051,0.34277518738259793,0.33818349656033764,0.33363228078312357,0.3122069326667085,0.3265219719994388,0.3114780431514008,0.2647991977398716,0.21969310203421832,0.16637025590841548,0.1159444448313498,0.06677306674658157,0.02365243207121237,0.0016973812871436955,0.006493802864927289,0.05797679612922524,0.11177886391127201,0.15946389938755168,0.20659917284939633,0.22570088162175095,0.2542898544580767,0.306114354223495,0.3354833323999378,0.3379244818510929,0.349949727244669,0.3744509581006654,0.40135874947995065,0.4197399703242515,0.4082697861898903,0.3685124708451806,0.3266731295936167,0.3018064633705664,0.2675795868165016,0.22313082502169523,0.17965503097808266,0.17779107104652292,0.23047951672875477,0.2733282464897089,0.30635651184115664,0.310425900230062,0.30640908937598743,0.2724319261978696,0.20658266575600415,0.13923126579806588,0.07192424251923102,0.015138618430361461,0.0005544938390631415,0.0,0.010911057175100325,0.030777282066537293,0.07061831433091026,0.12013562541141853,0.15772075350938897,0.21231906578731685,0.25319580219443294,0.2900964775433801,0.30970051134029175,0.3114688859451129,0.29505755461620753,0.29065063017197224,0.3264821403519682,0.38095895311167416,0.43750701890283183,0.4946528611770935,0.5553096439223171,0.6217726938076673,0.6763672247196193,0.7395316425796277,0.7859911213849275,0.8414855951180793,0.9030864885433529,0.8871584037567826,0.8325664522261782,0.7700139651177311,0.7027570758209021,0.6432432473248748,0.5847334727674731,0.5214994865223948,0.47033392150583575,0.41988129160801835,0.37353848983289595,0.3362541499242053,0.3059457175167579,0.2926107973957306,0.29589312931380674,0.2891070019485653,0.30223490848120305,0.30878156857525463,0.3292158959004481,0.3462778009527634,0.35983833935886356,0.3970940186382883,0.43536814239273225,0.4725298640613529,0.4995856871805473,0.5288622341311697,0.5213664393383408,0.4827098189100125,0.4424402146180264,0.41065036389848153,0.3769600230111858,0.34884039249585275,0.34486405767235606,0.3392091001695263,0.3235360468163857,0.3287257108071926,0.3453712207570212,0.3542972363861634,0.35162075240091717,0.3424137382758148,0.35365778257189806,0.344143031635606,0.34520147748288865,0.354302904608911,0.3579318808245042,0.35803548172260413,0.33859441370399646,0.3375710742932383,0.3448577712820686,0.3542928861033934,0.35789046837168925,0.3790804561232535,0.40993536824703103,0.42890719845983183,0.43254746642476194,0.3967511248513844,0.36228419891291264,0.3404498850965325,0.3235517529776337,0.3020828351654914,0.29060529344366826,0.32409592687338984,0.37540131625194695,0.43358573532196454,0.49064174837169894,0.5472366538312792,0.6085397627767821,0.6758570481179751,0.7402943237162534,0.7946009673324612,0.86102937270224,0.928380829446481,0.9939390263546506,1.0,0.9361277629135043,0.868788834674076,0.8060141876198843,0.7504582971946516,0.6836201929833838,0.620731346560921,0.5652707029227955,0.5029227698314425,0.4557541355948005,0.40179511126201684,0.35677951940359254,0.3295155991737122,0.30821334451819515,0.2916921221714732,0.2892722586479395,0.3024651954034381,0.30920609483789097,0.32584406931884624,0.34731816939790017,0.36821756056388644,0.39207706465770364,0.43538187377076687,0.47417145127622673,0.5049460192991462,0.5368870948693654,0.5514896451200664,0.5243392430038365,0.48360609420260525,0.4432227955079129,0.41415559950761116,0.38325871154690905,0.3602021891264173,0.3544284485910807,0.3543997501622478,0.3543997501622478,0.3543997501622478,0.35441715549404185,0.35886032814575053,0.36454861156840046,0.36588179405568955,0.3575733710221347,0.36360587488884866,0.3550318907568406,0.3436681872087384,0.33754622276708135,0.33752544346853064,0.34163239566004355,0.35837278076153156,0.38186629554730045,0.3739872353531175,0.3623096721762895,0.36031160131545015,0.32840186522442405,0.31784250821278404,0.29588762305314376,0.30685520045187564,0.3476995287805318,0.4023964510216578,0.4591391685148545,0.5128824886143462,0.5778090507982769,0.6339292521315119,0.6959420131455936,0.7632726286452383,0.8235508235414009,0.8101258211562947,0.7465848384022356,0.6793532437925904,0.6214795890419174,0.5614785240688724,0.5035753849216369,0.44876022351791,0.40004123443508455,0.3635763087130943,0.32967335198885817,0.32013851114685243,0.30780933796633336,0.3144025400860082,0.31248538428434136,0.3208385830063878,0.33947774873716874,0.35440361261840314,0.37219082513757584,0.40833723683230794,0.44276155381236126,0.47643777754243777,0.5101137339517283,0.5437558905492041,0.5682792418366032,0.5413364112668355,0.5051027739239551,0.46474404029786154,0.4275649627432534,0.39298317036252195,0.36997228488117706,0.3400160957634304,0.3375141785743532,0.33708449044080213,0.3254472995175446,0.32304755166909427,0.33624048842459286,0.3429461140271579,0.3500667213505362,0.34351927988179165,0.3540436505545168,0.3540197235798761,0.3428428608144314
0,1,2,3,4,5,6,7,8,9,10,11,12,13,14,15,16,17,18,19,20,21,22,23,24,25,26,27,28,29,30,31,32,33,34,35,36,37,38,39,40,41,42,43,44,45,46,47,48,49,50,51,52,53,54,55,56,57,58,59,60,61,62,63,64,65,66,67,68,69,70,71,72,73,74,75,76,77,78,79,80,81,82,83,84,85,86,87,88,89,90,91,92,93,94,95,96,97,98,99,100,101,102,103,104,105,106,107,108,109,110,111,112,113,114,115,116,117,118,119,120,121,122,123,124,125,126,127,128,129,130,131,132,133,134,135,136,137,138,139,140,141,142,143,144,145,146,147,148,149,150,151,152,153,154,155,156,157,158,159,160,161,162,163,164,165,166,167,168,169,170,171,172,173,174,175,176,177,178,179,180,181,182,183,184,185,186,187,188,189,190,191,192,193,194,195,196,197,198,199,200,201,202,203,204,205,206,207,208,209,210,211,212,213,214,215,216,217,218,219,220,221,222,223,224,225,226,227,228,229,230,231,232,233,234,235,236,237,238,239,240,241,242,243,244,245,246,247,248,249,250,251,252,253,254
0.6293333475537519,0.5952505676508677,0.5642922447995566,0.5399373312911315,0.5015887241306514,0.5035740418205048,0.527796262443057,0.5015468515021144,0.46997133495889987,0.44763503331915544,0.4628806406012034,0.46303956754849196,0.46303807574015643,0.4604288776424328,0.430621742777924,0.4009339960893117,0.3935098291670611,0.3654955439602512,0.34688709519074923,0.2944275436798591,0.2363508703367847,0.17827161616529175,0.12006626850127411,0.08760573272056682,0.05995300393997294,0.049490748324036105,0.0,0.028498700449365977,0.10274338085748624,0.18975791542611908,0.25084345736348723,0.3315811418545431,0.3919570720530894,0.46113620158504975,0.48980931626193414,0.4508247071244673,0.37830444733418744,0.34396670202790514,0.36130061724379825,0.3436917677884539,0.32806589658419405,0.3113063348819365,0.32698026540294567,0.34965381027939646,0.377807561018356,0.4080887751049307,0.4588304988311096,0.4776383380308662,0.5209141603816194,0.5592448867960389,0.5640242063884662,0.5614919609038989,0.5337256786726225,0.5539854131520805,0.5365315861126101,0.5002051833053072,0.48227215375067,0.46897952540199395,0.4952752409681498,0.4963733986353214,0.47500490357133973,0.4879515442937148,0.49669159023917686,0.4965930662757492,0.4815188731614386,0.46314991968127384,0.46303956754849196,0.464462282699329,0.4973731181569816,0.5227403965926678,0.4853230763384593,0.4798048204180354,0.4965693087242844,0.4966989357883147,0.48920870395423055,0.4635998857720356,0.4630517407045085,0.4764358752047819,0.49354822173630364,0.4661414493948559,0.49974296086335634,0.530076604039083,0.5347862958062866,0.5621252895102193,0.5646006180101217,0.5903835239098019,0.5990851073531056,0.6319649479229836,0.6634572369168019,0.6650164534509511,0.6648987528429675,0.6491400324330723,0.6314331364490036,0.6299936446632399,0.5997338747395871,0.5640647618271792,0.5346862899848599,0.5303649724113937,0.5286613541407412,0.5044195156217999,0.5275316594478738,0.5303636148658084,0.5303651961826441,0.530378085406662,0.5444560571418515,0.5638655897948635,0.5638921423523833,0.5456468371987944,0.5037342718381463,0.4865825813118647,0.4185789708381735,0.3595920578368714,0.3015145341630463,0.2473812865994054,0.2275513592186078,0.22740631194096572,0.23632746830450468,0.31115576217278385,0.3996742700104665,0.4882392348224771,0.5612409100715352,0.6318939254089893,0.719761045832227,0.7822939644598481,0.8309908509878978,0.8221243925983606,0.7641736771967409,0.6919314884595904,0.6049414377683373,0.5438965000501899,0.5045041554065381,0.5331560115475895,0.5581089749108905,0.5323973446545551,0.5435899167496654,0.5638551085221586,0.5640383934857347,0.5759193673768515,0.6250606368161815,0.679364532178873,0.7086409310061645,0.7316522360613131,0.7122993785247376,0.668070224597197,0.6342247144903723,0.6565908905178999,0.6650081613950096,0.6550999498499763,0.6035881610223974,0.597692495642133,0.5975940867542251,0.5835466845832897,0.5641846448589822,0.5639501387280168,0.5514436390401478,0.5355873869784693,0.5623241684578177,0.5640421080884899,0.5795046960864259,0.5975451741482676,0.5977035350238147,0.6116084576975673,0.6311906139828114,0.6366747911503596,0.6634305111036687,0.672008898865081,0.6893534418568894,0.6655240832104719,0.6713376636817046,0.697433711996676,0.6987921911356123,0.7177432082448734,0.7612140555738369,0.7973722387329873,0.799676736159685,0.81121789319472,0.8336399302801123,0.8608941427571741,0.8906619806119496,0.9011826214676866,0.9268252900762235,0.9339260103047033,0.9117443946034491,0.8996957277607134,0.8718518126078942,0.8364323357424075,0.8333295702789973,0.8312029843669384,0.8073848444754876,0.8307610393276601,0.8081103722361744,0.770460008003524,0.7660054931255145,0.770951026588313,0.7970987769796691,0.7746596913371313,0.7931498168595095,0.7996259108252302,0.7894156531436458,0.7699692494313206,0.7938541516514279,0.7440275994596295,0.6853693181265088,0.6267343380632582,0.5754641992995024,0.531111575932969,0.49603126438546585,0.466835630788216,0.46314949665047234,0.4875908036451957,0.5676488207264674,0.6281183013947569,0.7143797048563982,0.7915332895428557,0.8575976088796748,0.9147233030337754,0.9299190045080765,0.8900889393698863,0.8180807937484991,0.7808316121520873,0.7987357681666758,0.7826364358451308,0.7660329690212215,0.7705853136419751,0.8084431705848134,0.832884667696292,0.8520685596411592,0.9214895962443057,0.9342847531474314,0.9504760048570411,0.9991503088356914,1.0,0.9723213026781066,0.9402408086736216,0.9045392742068437,0.923618258483458,0.9083334331979174,0.8710886180148352,0.8535249967172156,0.8110011194296538,0.7827041438176225,0.7660355402560262,0.7658927858063063,0.7505895069237152,0.7303405493415704,0.706394492009589,0.7265948174368919,0.7013659485564325,0.7241403443448649,0.7197993897877399,0.6757005922309585,0.6478797962701375,0.6646627229350761,0.6650164534509511,0.6650164534509511
0,1,2,3,4,5,6,7,8,9,10,11,12,13,14,15,16,17,18,19,20,21,22,23,24,25,26,27,28,29,30,31,32,33,34,35,36,37,38,39,40,41,42,43,44,45,46,47,48,49,50,51,52,53,54,55,56,57,58,59,60,61,62,63,64,65,66,67,68,69,70,71,72,73,74,75,76,77,78,79,80,81,82,83,84,85,86,87,88,89,90,91,92,93,94,95,96,97,98,99,100,101,102,103,104,105,106,107,108,109,110,111,112,113,114,115,116,117,118,119,120,121,122,123,124,125,126,127,128,129,130,131,132,133,134,135,136,137,138,139,140,141,142,143,144,145,146,147,148,149,150,151,152,153,154,155,156,157,158,159,160,161,162,163,164,165,166,167,168,169,170,171,172,173,174,175,176,177,178,179,180,181,182,183,184,185,186,187,188,189,190,191,192,193,194,195,196,197,198,199,200,201,202,203,204,205,206,207,208,209,210,211,212,213,214,215,216,217,218,219,220,221,222,223,224,225,226,227,228,229,230,231,232,233,234,235,236,237,238,239,240,241,242,243,244,245,246,247,248,249,250,251,252,253,254
0.6293333475537519,0.5952505676508677,0.5642922447995566,0.5399373312911315,0.5015887241306514,0.5035740418205048,0.527796262443057,0.5015468515021144,0.46997133495889987,0.44763503331915544,0.4628806406012034,0.46303956754849196,0.46303807574015643,0.4604288776424328,0.430621742777924,0.4009339960893117,0.3935098291670611,0.3654955439602512,0.34688709519074923,0.2944275436798591,0.2363508703367847,0.17827161616529175,0.12006626850127411,0.08760573272056682,0.05995300393997294,0.049490748324036105,0.0,0.028498700449365977,0.10274338085748624,0.18975791542611908,0.25084345736348723,0.3315811418545431,0.3919570720530894,0.46113620158504975,0.48980931626193414,0.4508247071244673,0.37830444733418744,0.34396670202790514,0.36130061724379825,0.3436917677884539,0.32806589658419405,0.3113063348819365,0.32698026540294567,0.34965381027939646,0.377807561018356,0.4080887751049307,0.4588304988311096,0.4776383380308662,0.5209141603816194,0.5592448867960389,0.5640242063884662,0.5614919609038989,0.5337256786726225,0.5539854131520805,0.5365315861126101,0.5002051833053072,0.48227215375067,0.46897952540199395,0.4952752409681498,0.4963733986353214,0.47500490357133973,0.4879515442937148,0.49669159023917686,0.4965930662757492,0.4815188731614386,0.46314991968127384,0.46303956754849196,0.464462282699329,0.4973731181569816,0.5227403965926678,0.4853230763384593,0.4798048204180354,0.4965693087242844,0.4966989357883147,0.48920870395423055,0.4635998857720356,0.4630517407045085,0.4764358752047819,0.49354822173630364,0.4661414493948559,0.49974296086335634,0.530076604039083,0.5347862958062866,0.5621252895102193,0.5646006180101217,0.5903835239098019,0.5990851073531056,0.6319649479229836,0.6634572369168019,0.6650164534509511,0.6648987528429675,0.6491400324330723,0.6314331364490036,0.6299936446632399,0.5997338747395871,0.5640647618271792,0.5346862899848599,0.5303649724113937,0.5286613541407412,0.5044195156217999,0.5275316594478738,0.5303636148658084,0.5303651961826441,0.530378085406662,0.5444560571418515,0.5638655897948635,0.5638921423523833,0.5456468371987944,0.5037342718381463,0.4865825813118647,0.4185789708381735,0.3595920578368714,0.3015145341630463,0.2473812865994054,0.2275513592186078,0.22740631194096572,0.23632746830450468,0.31115576217278385,0.3996742700104665,0.4882392348224771,0.5612409100715352,0.6318939254089893,0.719761045832227,0.7822939644598481,0.8309908509878978,0.8221243925983606,0.7641736771967409,0.6919314884595904,0.6049414377683373,0.5438965000501899,0.5045041554065381,0.5331560115475895,0.5581089749108905,0.5323973446545551,0.5435899167496654,0.5638551085221586,0.5640383934857347,0.5759193673768515,0.6250606368161815,0.679364532178873,0.7086409310061645,0.7316522360613131,0.7122993785247376,0.668070224597197,0.6342247144903723,0.6565908905178999,0.6650081613950096,0.6550999498499763,0.6035881610223974,0.597692495642133,0.5975940867542251,0.5835466845832897,0.5641846448589822,0.5639501387280168,0.5514436390401478,0.5355873869784693,0.5623241684578177,0.5640421080884899,0.5795046960864259,0.5975451741482676,0.5977035350238147,0.6116084576975673,0.6311906139828114,0.6366747911503596,0.6634305111036687,0.672008898865081,0.6893534418568894,0.6655240832104719,0.6713376636817046,0.697433711996676,0.6987921911356123,0.7177432082448734,0.7612140555738369,0.7973722387329873,0.799676736159685,0.81121789319472,0.8336399302801123,0.8608941427571741,0.8906619806119496,0.9011826214676866,0.9268252900762235,0.9339260103047033,0.9117443946034491,0.8996957277607134,0.8718518126078942,0.8364323357424075,0.8333295702789973,0.8312029843669384,0.8073848444754876,0.8307610393276601,0.8081103722361744,0.770460008003524,0.7660054931255145,0.770951026588313,0.7970987769796691,0.7746596913371313,0.7931498168595095,0.7996259108252302,0.7894156531436458,0.7699692494313206,0.7938541516514279,0.7440275994596295,0.6853693181265088,0.6267343380632582,0.5754641992995024,0.531111575932969,0.49603126438546585,0.466835630788216,0.46314949665047234,0.4875908036451957,0.5676488207264674,0.6281183013947569,0.7143797048563982,0.7915332895428557,0.8575976088796748,0.9147233030337754,0.9299190045080765,0.8900889393698863,0.8180807937484991,0.7808316121520873,0.7987357681666758,0.7826364358451308,0.7660329690212215,0.7705853136419751,0.8084431705848134,0.832884667696292,0.8520685596411592,0.9214895962443057,0.9342847531474314,0.9504760048570411,0.9991503088356914,1.0,0.9723213026781066,0.9402408086736216,0.9045392742068437,0.923618258483458,0.9083334331979174,0.8710886180148352,0.8535249967172156,0.8110011194296538,0.7827041438176225,0.7660355402560262,0.7658927858063063,0.7505895069237152,0.7303405493415704,0.706394492009589,0.7265948174368919,0.7013659485564325,0.7241403443448649,0.7197993897877399,0.6757005922309585,0.6478797962701375,0.6646627229350761,0.6650164534509511,0.6650164534509511
0,1,2,3,4,5,6,7,8,9,10,11,12,13,14,15,16,17,18,19,20,21,22,23,24,25,26,27,28,29,30,31,32,33,34,35,36,37,38,39,40,41,42,43,44,45,46,47,48,49,50,51,52,53,54,55,56,57,58,59,60,61,62,63,64,65,66,67,68,69,70,71,72,73,74,75,76,77,78,79,80,81,82,83,84,85,86,87,88,89,90,91,92,93,94,95,96,97,98,99,100,101,102,103,104,105,106,107,108,109,110,111,112,113,114,115,116,117,118,119,120,121,122,123,124,125,126,127,128,129,130,131,132,133,134,135,136,137,138,139,140,141,142,143,144,145,146,147,148,149,150,151,152,153,154,155,156,157,158,159,160,161,162,163,164,165,166,167,168,169,170,171,172,173,174,175,176,177,178,179,180,181,182,183,184,185,186,187,188,189,190,191,192,193,194,195,196,197,198,199,200,201,202,203,204,205,206,207,208,209,210,211,212,213,214,215,216,217,218,219,220,221,222,223,224,225,226,227,228,229,230,231,232,233,234,235,236,237,238,239,240,241,242,243,244,245,246,247,248,249,250,251,252,253,254
0.6293333475537519,0.5952505676508677,0.5642922447995566,0.5399373312911315,0.5015887241306514,0.5035740418205048,0.527796262443057,0.5015468515021144,0.46997133495889987,0.44763503331915544,0.4628806406012034,0.46303956754849196,0.46303807574015643,0.4604288776424328,0.430621742777924,0.4009339960893117,0.3935098291670611,0.3654955439602512,0.34688709519074923,0.2944275436798591,0.2363508703367847,0.17827161616529175,0.12006626850127411,0.08760573272056682,0.05995300393997294,0.049490748324036105,0.0,0.028498700449365977,0.10274338085748624,0.18975791542611908,0.25084345736348723,0.3315811418545431,0.3919570720530894,0.46113620158504975,0.48980931626193414,0.4508247071244673,0.37830444733418744,0.34396670202790514,0.36130061724379825,0.3436917677884539,0.32806589658419405,0.3113063348819365,0.32698026540294567,0.34965381027939646,0.377807561018356,0.4080887751049307,0.4588304988311096,0.4776383380308662,0.5209141603816194,0.5592448867960389,0.5640242063884662,0.5614919609038989,0.5337256786726225,0.5539854131520805,0.5365315861126101,0.5002051833053072,0.48227215375067,0.46897952540199395,0.4952752409681498,0.4963733986353214,0.47500490357133973,0.4879515442937148,0.49669159023917686,0.4965930662757492,0.4815188731614386,0.46314991968127384,0.46303956754849196,0.464462282699329,0.4973731181569816,0.5227403965926678,0.4853230763384593,0.4798048204180354,0.4965693087242844,0.4966989357883147,0.48920870395423055,0.4635998857720356,0.4630517407045085,0.4764358752047819,0.49354822173630364,0.4661414493948559,0.49974296086335634,0.530076604039083,0.5347862958062866,0.5621252895102193,0.5646006180101217,0.5903835239098019,0.5990851073531056,0.6319649479229836,0.6634572369168019,0.6650164534509511,0.6648987528429675,0.6491400324330723,0.6314331364490036,0.6299936446632399,0.5997338747395871,0.5640647618271792,0.5346862899848599,0.5303649724113937,0.5286613541407412,0.5044195156217999,0.5275316594478738,0.5303636148658084,0.5303651961826441,0.530378085406662,0.5444560571418515,0.5638655897948635,0.5638921423523833,0.5456468371987944,0.5037342718381463,0.4865825813118647,0.4185789708381735,0.3595920578368714,0.3015145341630463,0.2473812865994054,0.2275513592186078,0.22740631194096572,0.23632746830450468,0.31115576217278385,0.3996742700104665,0.4882392348224771,0.5612409100715352,0.6318939254089893,0.719761045832227,0.7822939644598481,0.8309908509878978,0.8221243925983606,0.7641736771967409,0.6919314884595904,0.6049414377683373,0.5438965000501899,0.5045041554065381,0.5331560115475895,0.5581089749108905,0.5323973446545551,0.5435899167496654,0.5638551085221586,0.5640383934857347,0.5759193673768515,0.6250606368161815,0.679364532178873,0.7086409310061645,0.7316522360613131,0.7122993785247376,0.668070224597197,0.6342247144903723,0.6565908905178999,0.6650081613950096,0.6550999498499763,0.6035881610223974,0.597692495642133,0.5975940867542251,0.5835466845832897,0.5641846448589822,0.5639501387280168,0.5514436390401478,0.5355873869784693,0.5623241684578177,0.5640421080884899,0.5795046960864259,0.5975451741482676,0.5977035350238147,0.6116084576975673,0.6311906139828114,0.6366747911503596,0.6634305111036687,0.672008898865081,0.6893534418568894,0.6655240832104719,0.6713376636817046,0.697433711996676,0.6987921911356123,0.7177432082448734,0.7612140555738369,0.7973722387329873,0.799676736159685,0.81121789319472,0.8336399302801123,0.8608941427571741,0.8906619806119496,0.9011826214676866,0.9268252900762235,0.9339260103047033,0.9117443946034491,0.8996957277607134,0.8718518126078942,0.8364323357424075,0.8333295702789973,0.8312029843669384,0.8073848444754876,0.8307610393276601,0.8081103722361744,0.770460008003524,0.7660054931255145,0.770951026588313,0.7970987769796691,0.7746596913371313,0.7931498168595095,0.7996259108252302,0.7894156531436458,0.7699692494313206,0.7938541516514279,0.7440275994596295,0.6853693181265088,0.6267343380632582,0.5754641992995024,0.531111575932969,0.49603126438546585,0.466835630788216,0.46314949665047234,0.4875908036451957,0.5676488207264674,0.6281183013947569,0.7143797048563982,0.7915332895428557,0.8575976088796748,0.9147233030337754,0.9299190045080765,0.8900889393698863,0.8180807937484991,0.7808316121520873,0.7987357681666758,0.7826364358451308,0.7660329690212215,0.7705853136419751,0.8084431705848134,0.832884667696292,0.8520685596411592,0.9214895962443057,0.9342847531474314,0.9504760048570411,0.9991503088356914,1.0,0.9723213026781066,0.9402408086736216,0.9045392742068437,0.923618258483458,0.9083334331979174,0.8710886180148352,0.8535249967172156,0.8110011194296538,0.7827041438176225,0.7660355402560262,0.7658927858063063,0.7505895069237152,0.7303405493415704,0.706394492009589,0.7265948174368919,0.7013659485564325,0.7241403443448649,0.7197993897877399,0.6757005922309585,0.6478797962701375,0.6646627229350761,0.6650164534509511,0.6650164534509511
0,1,2,3,4,5,6,7,8,9,10,11,12,13,14,15,16,17,18,19,20,21,22,23,24,25,26,27,28,29,30,31,32,33,34,35,36,37,38,39,40,41,42,43,44,45,46,47,48,49,50,51,52,53,54,55,56,57,58,59,60,61,62,63,64,65,66,67,68,69,70,71,72,73,74,75,76,77,78,79,80,81,82,83,84,85,86,87,88,89,90,91,92,93,94,95,96,97,98,99,100,101,102,103,104,105,106,107,108,109,110,111,112,113,114,115,116,117,118,119,120,121,122,123,124,125,126,127,128,129,130,131,132,133,134,135,136,137,138,139,140,141,142,143,144,145,146,147,148,149,150,151,152,153,154,155,156,157,158,159,160,161,162,163,164,165,166,167,168,169,170,171,172,173,174,175,176,177,178,179,180,181,182,183,184,185,186,187,188,189,190,191,192,193,194,195,196,197,198,199,200,201,202,203,204,205,206,207,208,209,210,211,212,213,214,215,216,217,218,219,220,221,222,223,224,225,226,227,228,229,230,231,232,233,234,235,236,237,238,239,240,241,242,243,244,245,246,247,248,249,250,251,252,253,254
0.14425656079182447,0.14819440431705644,0.19303540863098023,0.26562595160837343,0.3500761408784365,0.41858894566295524,0.47538722683803014,0.5356969977357515,0.6116279489756438,0.6793496116533779,0.763309396296969,0.8318230042792942,0.9096739646784062,0.9928294189695279,1.0,0.9192094121672465,0.8342338596510297,0.749903326019238,0.6825230096824435,0.6034249772005533,0.518459680781465,0.43360545365722514,0.36095289758061,0.2919297255469049,0.24437776087002927,0.17969366737288484,0.1261534432563689,0.05850274521138488,0.01592685859395271,0.0,0.013225893607855088,0.08659264283311563,0.15448439672326808,0.21306698354297993,0.2758172140436259,0.32046781795800294,0.3288372598833913,0.38472537623088954,0.4320801409943327,0.44183766550186476,0.5017984053424254,0.5292287278342336,0.5222743094645521,0.5213414429076804,0.5306105857705754,0.5455007674082157,0.5660385338168812,0.5823721934417141,0.6198525300130369,0.64264573653689,0.6635944030269423,0.691841266896009,0.7205668572449859,0.7646100204696316,0.7964967318121579,0.8268167010787577,0.8317850658294761,0.7850254939015038,0.7384950828390968,0.6832958019310578,0.6406716442795442,0.5981917275255442,0.561100720112381,0.5464807295186933,0.5307632046767656,0.530335133026842,0.5286736314848892,0.5109297354954108,0.5267669974778135,0.5306742483798619,0.5456761626393907,0.5544855725908255,0.5627810377254705,0.561944023562964,0.5544971778166943,0.5542828779063425,0.5408323076021082,0.5304235249405864,0.5303355151980464,0.5303418208592281,0.5342249296613248,0.5671498760957863,0.5996605939472781,0.6281105955709374,0.6482651121751819,0.6198623134354881,0.5590906249239991,0.517518004221817,0.4825074061510932,0.45422909819053325,0.4345917183822414,0.43378336021201935,0.4240515903120592,0.3911894537179954,0.4033555764220025,0.45810554451293584,0.5138733241423017,0.560969214947324,0.6282478941726932,0.7016458752664896,0.7844138312354838,0.8499084065427045,0.916996824949031,0.8731847512786155,0.7884338289129804,0.7034577986827584,0.6198933319721025,0.5540438101295098,0.47265401999635603,0.387683822409977,0.30427816174097844,0.24235254479088786,0.2279107652265142,0.2807051681505732,0.35650980363777274,0.4217941925112294,0.48911895208752654,0.5191246143658246,0.5097340763603255,0.524853766684136,0.5083891603942257,0.5250170270652177,0.5304691250740814,0.54942955870635,0.5873852461130893,0.6029940343862443,0.6233067286342671,0.6569592071866066,0.6928290527167893,0.72592825361449,0.7512910007587728,0.7704430450643578,0.763109205370478,0.7229115504055947,0.6709716520885016,0.6335803560587956,0.5849193246974504,0.5545434487059153,0.5333166097589648,0.51772544001998,0.5063116770592204,0.5062053337141563,0.5062055236486414,0.5070191626648439,0.5249974663595007,0.5303291711503308,0.5324405909107841,0.5515037240414187,0.5378994088432973,0.5471630625068249,0.5497766243211926,0.5312735197279075,0.5373588043845192,0.5584178749101931,0.592006634929874,0.6204190944505852,0.6411022203324088,0.6396990499950266,0.5911274597651643,0.541565043417485,0.5060200061253011,0.474018861479621,0.4582824973028665,0.45778636405586504,0.43890399514073675,0.41052348400115646,0.4194525822713344,0.4726992741098268,0.5403383539104185,0.6169074138583768,0.6858484879252913,0.7631140922772177,0.831145787441657,0.7880616468086412,0.7037416233126637,0.6187655332243005,0.5337895766656358,0.4502823167902825,0.3844649492853116,0.30326037115457405,0.23720433531722662,0.2351443739693151,0.2875803137282098,0.3586465345581127,0.4260525874662724,0.5007767408476296,0.5140027894999672,0.5070164448920931,0.5209644189040632,0.5077188053817228,0.5186315514236797,0.5393068677416948,0.5542669322096443,0.5646703998636808,0.6039820942359104,0.6300719423782084,0.6525048903886113,0.6937885389252179,0.7246199419423958,0.7566097659637778,0.791218444716904,0.7851515569030028,0.7368171445857081,0.6916104023426572,0.6411128203261316,0.6075412391353421,0.5496410154564413,0.5296351353622879,0.5122432128073111,0.5245272736547277,0.5303246872172487,0.5301773690128098,0.5171841681833684,0.5082505657261143,0.5274923219448513,0.5303341016250345,0.5303355151980464,0.5303355151980464,0.5303355151980464,0.5303355151980464,0.5304836016142405,0.5464417567599162,0.5867161514817423,0.6164269627724246,0.6311562860411657,0.6480635579602714,0.6115239522281324,0.5565442803468539,0.5125964413270001,0.4782242943645527,0.449976751103482,0.43721698574505474,0.4560358272625695,0.4387122897811966,0.3943340764781489,0.39515539526500865,0.43642339157058485,0.504621948075155,0.5703207161397255,0.6529082699542363,0.7196164693170406,0.7994513553425069,0.8556323526839602,0.8003879340875679,0.7155701436479038,0.6305940535595407,0.5456432148667552,0.4684116484701395,0.3993433630756211,0.3155720198923806,0.2680704076749252,0.2955447003853955,0.35918957561393494,0.42582591715339024,0.49874575789453424
0,1,2,3,4,5,6,7,8,9,10,11,12,13,14,15,16,17,18,19,20,21,22,23,24,25,26,27,28,29,30,31,32,33,34,35,36,37,38,39,40,41,42,43,44,45,46,47,48,49,50,51,52,53,54,55,56,57,58,59,60,61,62,63,64,65,66,67,68,69,70,71,72,73,74,75,76,77,78,79,80,81,82,83,84,85,86,87,88,89,90,91,92,93,94,95,96,97,98,99,100,101,102,103,104,105,106,107,108,109,110,111,112,113,114,115,116,117,118,119,120,121,122,123,124,125,126,127,128,129,130,131,132,133,134,135,136,137,138,139,140,141,142,143,144,145,146,147,148,149,150,151,152,153,154,155,156,157,158,159,160,161,162,163,164,165,166,167,168,169,170,171,172,173,174,175,176,177,178,179,180,181,182,183,184,185,186,187,188,189,190,191,192,193,194,195,196,197,198,199,200,201,202,203,204,205,206,207,208,209,210,211,212,213,214,215,216,217,218,219,220,221,222,223,224,225,226,227,228,229,230,231,232,233,234,235,236,237,238,239,240,241,242,243,244,245,246,247,248,249,250,251,252,253,254
0.14425656079182447,0.14819440431705644,0.19303540863098023,0.26562595160837343,0.3500761408784365,0.41858894566295524,0.47538722683803014,0.5356969977357515,0.6116279489756438,0.6793496116533779,0.763309396296969,0.8318230042792942,0.9096739646784062,0.9928294189695279,1.0,0.9192094121672465,0.8342338596510297,0.749903326019238,0.6825230096824435,0.6034249772005533,0.518459680781465,0.43360545365722514,0.36095289758061,0.2919297255469049,0.24437776087002927,0.17969366737288484,0.1261534432563689,0.05850274521138488,0.01592685859395271,0.0,0.013225893607855088,0.08659264283311563,0.15448439672326808,0.21306698354297993,0.2758172140436259,0.32046781795800294,0.3288372598833913,0.38472537623088954,0.4320801409943327,0.44183766550186476,0.5017984053424254,0.5292287278342336,0.5222743094645521,0.5213414429076804,0.5306105857705754,0.5455007674082157,0.5660385338168812,0.5823721934417141,0.6198525300130369,0.64264573653689,0.6635944030269423,0.691841266896009,0.7205668572449859,0.7646100204696316,0.7964967318121579,0.8268167010787577,0.8317850658294761,0.7850254939015038,0.7384950828390968,0.6832958019310578,0.6406716442795442,0.5981917275255442,0.561100720112381,0.5464807295186933,0.5307632046767656,0.530335133026842,0.5286736314848892,0.5109297354954108,0.5267669974778135,0.5306742483798619,0.5456761626393907,0.5544855725908255,0.5627810377254705,0.561944023562964,0.5544971778166943,0.5542828779063425,0.5408323076021082,0.5304235249405864,0.5303355151980464,0.5303418208592281,0.5342249296613248,0.5671498760957863,0.5996605939472781,0.6281105955709374,0.6482651121751819,0.6198623134354881,0.5590906249239991,0.517518004221817,0.4825074061510932,0.45422909819053325,0.4345917183822414,0.43378336021201935,0.4240515903120592,0.3911894537179954,0.4033555764220025,0.45810554451293584,0.5138733241423017,0.560969214947324,0.6282478941726932,0.7016458752664896,0.7844138312354838,0.8499084065427045,0.916996824949031,0.8731847512786155,0.7884338289129804,0.7034577986827584,0.6198933319721025,0.5540438101295098,0.47265401999635603,0.387683822409977,0.30427816174097844,0.24235254479088786,0.2279107652265142,0.2807051681505732,0.35650980363777274,0.4217941925112294,0.48911895208752654,0.5191246143658246,0.5097340763603255,0.524853766684136,0.5083891603942257,0.5250170270652177,0.5304691250740814,0.54942955870635,0.5873852461130893,0.6029940343862443,0.6233067286342671,0.6569592071866066,0.6928290527167893,0.72592825361449,0.7512910007587728,0.7704430450643578,0.763109205370478,0.7229115504055947,0.6709716520885016,0.6335803560587956,0.5849193246974504,0.5545434487059153,0.5333166097589648,0.51772544001998,0.5063116770592204,0.5062053337141563,0.5062055236486414,0.5070191626648439,0.5249974663595007,0.5303291711503308,0.5324405909107841,0.5515037240414187,0.5378994088432973,0.5471630625068249,0.5497766243211926,0.5312735197279075,0.5373588043845192,0.5584178749101931,0.592006634929874,0.6204190944505852,0.6411022203324088,0.6396990499950266,0.5911274597651643,0.541565043417485,0.5060200061253011,0.474018861479621,0.4582824973028665,0.45778636405586504,0.43890399514073675,0.41052348400115646,0.4194525822713344,0.4726992741098268,0.5403383539104185,0.6169074138583768,0.6858484879252913,0.7631140922772177,0.831145787441657,0.7880616468086412,0.7037416233126637,0.6187655332243005,0.5337895766656358,0.4502823167902825,0.3844649492853116,0.30326037115457405,0.23720433531722662,0.2351443739693151,0.2875803137282098,0.3586465345581127,0.4260525874662724,0.5007767408476296,0.5140027894999672,0.5070164448920931,0.5209644189040632,0.5077188053817228,0.5186315514236797,0.5393068677416948,0.5542669322096443,0.5646703998636808,0.6039820942359104,0.6300719423782084,0.6525048903886113,0.6937885389252179,0.7246199419423958,0.7566097659637778,0.791218444716904,0.7851515569030028,0.7368171445857081,0.6916104023426572,0.6411128203261316,0.6075412391353421,0.5496410154564413,0.5296351353622879,0.5122432128073111,0.5245272736547277,0.5303246872172487,0.5301773690128098,0.5171841681833684,0.5082505657261143,0.5274923219448513,0.5303341016250345,0.5303355151980464,0.5303355151980464,0.5303355151980464,0.5303355151980464,0.5304836016142405,0.5464417567599162,0.5867161514817423,0.6164269627724246,0.6311562860411657,0.6480635579602714,0.6115239522281324,0.5565442803468539,0.5125964413270001,0.4782242943645527,0.449976751103482,0.43721698574505474,0.4560358272625695,0.4387122897811966,0.3943340764781489,0.39515539526500865,0.43642339157058485,0.504621948075155,0.5703207161397255,0.6529082699542363,0.7196164693170406,0.7994513553425069,0.8556323526839602,0.8003879340875679,0.7155701436479038,0.6305940535595407,0.5456432148667552,0.4684116484701395,0.3993433630756211,0.3155720198923806,0.2680704076749252,0.2955447003853955,0.35918957561393494,0.42582591715339024,0.49874575789453424
0,1,2,3,4,5,6,7,8,9,10,11,12,13,14,15,16,17,18,19,20,21,22,23,24,25,26,27,28,29,30,31,32,33,34,35,36,37,38,39,40,41,42,43,44,45,46,47,48,49,50,51,52,53,54,55,56,57,58,59,60,61,62,63,64,65,66,67,68,69,70,71,72,73,74,75,76,77,78,79,80,81,82,83,84,85,86,87,88,89,90,91,92,93,94,95,96,97,98,99,100,101,102,103,104,105,106,107,108,109,110,111,112,113,114,115,116,117,118,119,120,121,122,123,124,125,126,127,128,129,130,131,132,133,134,135,136,137,138,139,140,141,142,143,144,145,146,147,148,149,150,151,152,153,154,155,156,157,158,159,160,161,162,163,164,165,166,167,168,169,170,171,172,173,174,175,176,177,178,179,180,181,182,183,184,185,186,187,188,189,190,191,192,193,194,195,196,197,198,199,200,201,202,203,204,205,206,207,208,209,210,211,212,213,214,215,216,217,218,219,220,221,222,223,224,225,226,227,228,229,230,231,232,233,234,235,236,237,238,239,240,241,242,243,244,245,246,247,248,249,250,251,252,253,254
0.1022760327391361,0.08482309953852818,0.09516658357994201,0.10425667813522255,0.10433257185290712,0.10436944846612617,0.11391801398763945,0.12008312755253536,0.10485769246317966,0.10676780767676819,0.12283238927916429,0.10838664436187528,0.09516746258219833,0.08351765102061037,0.08355074112791483,0.09621943145661715,0.10429113064889561,0.10438067734291634,0.11550761014958866,0.1295884149916806,0.161825817640334,0.17983613675339383,0.21640603577617545,0.22939662348690604,0.23754801210269116,0.2501103593314977,0.24070332184688326,0.22647012823053325,0.2003287170705308,0.1638521420756156,0.1441068220422168,0.11923031122990002,0.10273783673707593,0.08511046309451231,0.06396492129246045,0.04211365526900712,0.04042733725957248,0.022682329571522164,0.003696906995046323,0.01512780942066394,0.023007354211563413,0.04006373194507784,0.04173198932099398,0.04173226400919949,0.04173226400919949,0.04173226400919949,0.04178411245813862,0.05343255057870122,0.06085460750863003,0.04456113811264606,0.0726991278134661,0.13285063270846242,0.19405967976222138,0.2552682983023793,0.31404270285879976,0.3583677481858243,0.4180299227606348,0.47923885993911153,0.5404480498307369,0.6015723011661183,0.6501128007290409,0.7032502914283869,0.764416941363181,0.8214970110678257,0.8667893344430313,0.9271420847592315,0.9782261904645315,0.9952877003665037,0.9642113532887153,0.9105150620387326,0.8653351986835718,0.8047604607263912,0.7435541458260975,0.6850107288573959,0.6411454030470258,0.580790426491014,0.5195812805495015,0.45837236534608117,0.39883143283037237,0.35466760051137847,0.295610806812995,0.23440228716059064,0.17437638640847553,0.12956784489522732,0.07258746307872421,0.03218898281739424,0.020909780346345386,0.020288338971264697,0.004693898470905289,0.0,5.431685459633684e-05,0.013026313119004929,0.04377930349193759,0.08414687496699269,0.12055553871460756,0.12875855569684358,0.14500389852204743,0.14592114685742574,0.1347936242995038,0.12429526988818873,0.10808719377599907,0.09464084086835323,0.08351390806168046,0.08346580257167124,0.08346580257167124,0.08346548393335285,0.08155474243923289,0.06418695885054237,0.06259934094122555,0.06259903329043537,0.06259903329043537,0.06312339576126025,0.07731091180760474,0.06587283723517601,0.0625998683425788,0.06261719510900532,0.0695607902255646,0.08323487254245876,0.08346580257167124,0.08355074112791483,0.09621943145661804,0.10509043659680106,0.1221468987328338,0.12519645884921227,0.12904708303175472,0.14512599760834988,0.14933977152225308,0.16063319018751798,0.13531812960819645,0.12523621774736204,0.125199341134143,0.125199341134143,0.125199341134143,0.1252062740759219,0.130581496628412,0.14578707413486525,0.1590924784720258,0.18473664460570216,0.19901515666808622,0.22310915338479465,0.2594696225478752,0.2711388239887538,0.2700752844530041,0.24896755179707775,0.2192573674933458,0.19848766329271283,0.18706969800038875,0.16217649266374412,0.14340905639909796,0.11794045802357855,0.10441723572094652,0.10240743712100375,0.07816443961275388,0.06696731414365242,0.07652332044891796,0.06295860767296979,0.06259903329043537,0.06245423454540511,0.05132669001242807,0.04212871500495252,0.05565694671869714,0.047720770331520335,0.06023339993884225,0.04773258888803378,0.060567972689583804,0.062332493410289125,0.045729893184650816,0.022513300431609373,0.03690482541858042,0.09390419738376243,0.15510837710391456,0.21579301773673398,0.2616314024425064,0.31787816136604885,0.37907836738917844,0.4402875572808038,0.5014823283127909,0.5562707139425451,0.6032965139604918,0.664257547566069,0.7254667374576931,0.7866240789003802,0.8361845559832375,0.8883034315690184,0.948801352856143,0.9898002883353714,1.0,0.9656304952999122,0.9049209532763243,0.8437117633846976,0.7825025734930735,0.7212934605141443,0.6606613494665221,0.6150466000752575,0.5585313086545365,0.49732339331618425,0.436114203424558,0.3751359435621464,0.32760083598741385,0.2733354719504417,0.21357021713509816,0.16909294266854058,0.11556352303508621,0.07092250756358354,0.042349476271187125,0.04173226400919949,0.04173226400919949,0.0416735965483519,0.03309952274107042,0.02630647556306487,0.04723081822618003,0.0850894380984526,0.11991384889694023,0.15715515071049246,0.1836899212246199,0.17494156606603362,0.1656446168149217,0.14291153042236004,0.10814065607686674,0.10422306067369336,0.09410838491841966,0.08008834707402723,0.06977861102202976,0.08321764628562178,0.08355074112791483,0.09620433871095768,0.09706879733893459,0.09534814860798901,0.09775008535043161,0.08440499841364035,0.10012853722740145,0.10302088431515255,0.08646594852979606,0.0824049091817245,0.06859965483253117,0.08193761931264643,0.09042722988095342,0.10352448606699616,0.08816790853762901,0.08884839392026977,0.10196689455120111,0.08946639115118282,0.10352470581756057,0.0904284934466979,0.08733170628785292,0.1033916239937338,0.10433317616695881,0.10733288262395524,0.12389460117249529,0.12519913237110725,0.12510622115962233,0.11550659929699503,0.10438067734291634,0.10433257185290712,0.10433257185290712
0,1,2,3,4,5,6,7,8,9,10,11,12,13,14,15,16,17,18,19,20,21,22,23,24,25,26,27,28,29,30,31,32,33,34,35,36,37,38,39,40,41,42,43,44,45,46,47,48,49,50,51,52,53,54,55,56,57,58,59,60,61,62,63,64,65,66,67,68,69,70,71,72,73,74,75,76,77,78,79,80,81,82,83,84,85,86,87,88,89,90,91,92,93,94,95,96,97,98,99,100,101,102,103,104,105,106,107,108,109,110,111,112,113,114,115,116,117,118,119,120,121,122,123,124,125,126,127,128,129,130,131,132,133,134,135,136,137,138,139,140,141,142,143,144,145,146,147,148,149,150,151,152,153,154,155,156,157,158,159,160,161,162,163,164,165,166,167,168,169,170,171,172,173,174,175,176,177,178,179,180,181,182,183,184,185,186,187,188,189,190,191,192,193,194,195,196,197,198,199,200,201,202,203,204,205,206,207,208,209,210,211,212,213,214,215,216,217,218,219,220,221,222,223,224,225,226,227,228,229,230,231,232,233,234,235,236,237,238,239,240,241,242,243,244,245,246,247,248,249,250,251,252,253,254
