0,1,2,3,4,5,6,7,8,9,10,11,12,13,14,15,16,17,18,19,20,21,22,23,24,25,26,27,28,29,30,31,32,33,34,35,36,37,38,39,40,41,42,43,44,45,46,47,48,49,50,51,52,53,54,55,56,57,58,59,60,61,62,63,64,65,66,67,68,69,70,71,72,73,74,75,76,77,78,79,80,81,82,83,84,85,86,87,88,89,90,91,92,93,94,95,96,97,98,99,100,101,102,103,104,105,106,107,108,109,110,111,112,113,114,115,116,117,118,119,120,121,122,123,124,125,126,127,128,129,130,131,132,133,134,135,136,137,138,139,140,141,142,143,144,145,146,147,148,149,150,151,152,153,154,155,156,157,158,159,160,161,162,163,164,165,166,167,168,169,170,171,172,173,174,175,176,177,178,179,180,181,182,183,184,185,186,187,188,189,190,191,192,193,194,195,196,197,198,199,200,201,202,203,204,205,206,207,208,209,210,211,212,213,214,215,216,217,218,219,220,221,222,223,224,225,226,227,228,229,230,231,232,233,234,235,236,237,238,239,240,241,242,243,244,245,246,247,248,249,250,251,252,253,254
0.8760378773123522,0.8711630061062964,0.8714425835415663,0.8789234877059992,0.8711350002089077,0.8427756313821123,0.8273456333046533,0.8296974629074502,0.8320000779309048,0.8196721278942748,0.8035610172005395,0.807257573144312,0.8251667575545362,0.8108429360020598,0.748265628289528,0.6743716834389272,0.6020510189052125,0.5312959170948098,0.45871954623500455,0.3863728836734356,0.31398783895035753,0.24130110753883605,0.1856008934923542,0.2201081353200609,0.2927143007013012,0.370285021353313,0.45050035674547984,0.5298920696817045,0.6035543804147158,0.6822114304778976,0.7612909576918315,0.8318005550078137,0.8719243271977263,0.869969774106126,0.8588638600802682,0.8534295774847186,0.8595609064872908,0.8549548489881008,0.8239706233245924,0.7998261680168158,0.7928333339546129,0.783891693758321,0.7684479189912937,0.7402290683881739,0.7295042266500892,0.7333324080034472,0.7194266468204354,0.6589222717669895,0.5856174100764452,0.512451715718044,0.44037997864463374,0.3687318763923012,0.29394146919245745,0.2197436026760381,0.1399714734858465,0.06290927482682784,0.0,0.01134000006160174,0.08207675115374014,0.15749818772765578,0.23758323980472673,0.3178120573020682,0.3959747135652977,0.4698898446766918,0.5495322240361734,0.6296032937902701,0.7048915457369501,0.7788422573931996,0.8481913184346602,0.8978610320216102,0.9208992361105489,0.9334868457288078,0.9461126300340891,0.9629911382199788,0.9574961005576691,0.9254664695784597,0.9039048308127818,0.8971645262011606,0.888033952683252,0.8630732463860858,0.8460072967260427,0.8554452947157208,0.8521480423767208,0.7975966407688361,0.7255845595713893,0.6525501404966637,0.5810349412481975,0.5051654886469873,0.42522099230860866,0.350131588234857,0.2777555586849977,0.20269827951673147,0.13013348396093116,0.09195757816585781,0.14287673303944048,0.21974245461548048,0.29387888252411554,0.37365634963055794,0.4538960558109123,0.5331243776684812,0.6067533422991703,0.685608597721164,0.7652984985264543,0.8387781639510855,0.8894775201591602,0.8828707017284033,0.8720829851107198,0.8648058620658888,0.8615439277607647,0.8474933010247262,0.8167435308243328,0.8007043620866304,0.7998017735615573,0.8219040875732987,0.8483286964774316,0.8320809511214443,0.8306632361690706,0.846859431856778,0.8620144225178871,0.8134021762383733,0.7419237596702869,0.6642959178737334,0.5895441684021704,0.5155070351110819,0.44252537545305015,0.36957028045670526,0.2960823712385462,0.22050090858960336,0.1732170291734606,0.21140671246202414,0.28802626346751237,0.3673953752012985,0.44106026805062337,0.519712840151073,0.5999485130712444,0.6801910867647095,0.7604336334912246,0.8404558528082374,0.9147718236274797,0.9559885197183874,0.9059865491081666,0.8280213288917188,0.7558565464290442,0.6920848541984118,0.6273318271156142,0.551637819123458,0.47819666443069264,0.4830998344478289,0.5527469750230797,0.6265702224030211,0.6971974098476282,0.7693858736634297,0.8414437666411899,0.8970361732671094,0.8897501213124727,0.8662852710323427,0.8623749375313049,0.8751373648523161,0.8716882766560937,0.835559913870923,0.8224507843548595,0.8355167010958741,0.8650615505779228,0.8862787766291585,0.8852618409053689,0.8919153312532785,0.9004790718136669,0.9156439160044646,0.936024405502632,0.8982489271771038,0.8265365780656461,0.7479022646711145,0.6681137103470448,0.5939241835364676,0.5161831657185981,0.43841276277658026,0.4185520307664198,0.48603653155868354,0.5589685287467535,0.6303000284059485,0.7022699026149867,0.7803872516424469,0.8511873177335442,0.8844768915114901,0.8879439454789652,0.8792875857623871,0.8926040847621893,0.9133184611484312,0.9232152529249563,0.9266149340954214,0.9453269899297799,0.9782462236013117,1.0,0.988038437298845,0.974252268935425,0.9589448833427267,0.9454306489807852,0.9231751487873902,0.8783155508158068,0.815451740561432,0.7418140187905328,0.6678063234940176,0.5881260350224656,0.5115693082900231,0.43640249061964254,0.35758628435102013,0.32394333414279874,0.38382081958898595,0.45760697368655767,0.5363329829592588,0.608131352110432,0.6693189396537412,0.7300060507831779,0.7579523726102418,0.7628825573890864,0.7634407302331511,0.7881316008905154,0.8072945157398087,0.8194175117762595,0.8279891001455671,0.8492970802803644,0.8816868047047971,0.8880221268445928,0.8801089344106746,0.8850943823974627,0.8937929639692918,0.9109826559296451,0.9256119241672173,0.8742387131447035,0.8015390750467956,0.7230629784464081,0.6428294651508203,0.5625868914573552,0.48237605466418476,0.4121069286597355,0.4316094411274777,0.5022946570724142,0.5735643167685803,0.6449192605336765,0.7175269063169257,0.7911884668373076,0.843809788062914,0.8545516978941906,0.8397799320722422,0.8364359193498027,0.8524052246925725,0.8613999061243821,0.857112603786346,0.8534380367341586,0.8757645746463635,0.901840930148461,0.903600817259597,0.8960840908192959,0.9013292780801238,0.9063161939950647
0,1,2,3,4,5,6,7,8,9,10,11,12,13,14,15,16,17,18,19,20,21,22,23,24,25,26,27,28,29,30,31,32,33,34,35,36,37,38,39,40,41,42,43,44,45,46,47,48,49,50,51,52,53,54,55,56,57,58,59,60,61,62,63,64,65,66,67,68,69,70,71,72,73,74,75,76,77,78,79,80,81,82,83,84,85,86,87,88,89,90,91,92,93,94,95,96,97,98,99,100,101,102,103,104,105,106,107,108,109,110,111,112,113,114,115,116,117,118,119,120,121,122,123,124,125,126,127,128,129,130,131,132,133,134,135,136,137,138,139,140,141,142,143,144,145,146,147,148,149,150,151,152,153,154,155,156,157,158,159,160,161,162,163,164,165,166,167,168,169,170,171,172,173,174,175,176,177,178,179,180,181,182,183,184,185,186,187,188,189,190,191,192,193,194,195,196,197,198,199,200,201,202,203,204,205,206,207,208,209,210,211,212,213,214,215,216,217,218,219,220,221,222,223,224,225,226,227,228,229,230,231,232,233,234,235,236,237,238,239,240,241,242,243,244,245,246,247,248,249,250,251,252,253,254
0.5284030499918266,0.5309699758853628,0.5491877914580108,0.5460019093108777,0.5503461695365253,0.5637541922906015,0.5559794893133423,0.5523082887193889,0.5149124536104548,0.44270974732910773,0.36515349433279853,0.28811715162370644,0.21569297001691756,0.13999729436699926,0.08377887335187284,0.1116584516965693,0.1856555859347937,0.2586881565427187,0.3340064690364182,0.41159217089455447,0.48297331340296434,0.5464242000917394,0.6226781498612686,0.7000616301368341,0.7527545497135695,0.7075098234628925,0.6347587499624547,0.5714448012664681,0.5280598338034637,0.5003750744876243,0.4711196463688503,0.4663096271083631,0.4836844525726427,0.49058771897357323,0.521993535852018,0.5387872327729066,0.5247910623382328,0.533043655980054,0.5437263012223057,0.5484562569533584,0.5682122594089285,0.5546585796444687,0.4890049101956848,0.4171311866651666,0.34220637793087993,0.2696447745787166,0.19288647684162474,0.1205943014461488,0.06828966272126602,0.10476970223420123,0.18100126716150888,0.25870386031733483,0.3344983668062147,0.40720374563087525,0.4844890591094404,0.5621768154359743,0.6374294882181206,0.7104155782508117,0.7704693134362774,0.7362436747705947,0.667387435950189,0.6007721523556553,0.5474461446670593,0.5104015920613827,0.4805845496865879,0.4572293171771682,0.46677002547822677,0.4750181639356579,0.5013663786935001,0.5404150342724103,0.5434552409113611,0.5330815461759351,0.5448690883914598,0.5445716124384403,0.5091550011533894,0.44011987972843736,0.36737983589124035,0.2900408828640564,0.2123922861578985,0.13816385323722924,0.08412133626726714,0.11263932219047845,0.1836352066711039,0.2610027723341679,0.3361027281247848,0.4093293701416032,0.48680868157550794,0.56452920032241,0.6417971195583914,0.7027781880035722,0.6771713735701703,0.6064688909654232,0.5349687013756665,0.47990057447255396,0.43382242563631346,0.393532331424868,0.3707918205162988,0.3737086458219352,0.4035371591121748,0.4634708673553338,0.5048474374119918,0.5395031064093656,0.5656136074912672,0.5627260219974546,0.5415506785137143,0.5579095618018577,0.5925748269989737,0.6129932162944771,0.5943978690095686,0.5897391981496809,0.5971365438885703,0.5797522787677916,0.576114477053004,0.5858350418935758,0.5716343576706402,0.5426288992135444,0.4821417265760164,0.4101836197591664,0.3351854299693722,0.26094213948614264,0.18697501470519584,0.11037615823553659,0.039281658148087595,0.0,0.04745536448835397,0.12358459768863006,0.2013000938037688,0.27902105194120963,0.3567420100786505,0.434411632723283,0.5092642203948756,0.582708051233251,0.6602307514623513,0.7379511839924215,0.8142958512257377,0.8456475673990627,0.7847747009046708,0.7076095751024356,0.634827986803411,0.5591446851397122,0.4814435473887244,0.4037268440289481,0.3294765753440765,0.31847426356291064,0.3871038511011846,0.45969952512976486,0.5299088611223792,0.5753436960672789,0.5997370872976118,0.6128367808046695,0.6026660824660068,0.6098727040245371,0.6249179600049695,0.6198816881628324,0.616344524849771,0.6380608298653914,0.6327039213825532,0.6015197730376785,0.5714033896960442,0.5813268361756805,0.5952617360230814,0.5789683188217738,0.5504944589146397,0.5175999239590228,0.46975341774615154,0.4154422901576367,0.4017412835845908,0.4253701704878039,0.4687471042583442,0.5178791924266575,0.5803086922358871,0.6502000204074843,0.7216774594000162,0.7935782897600947,0.8627267001324939,0.8644079989209121,0.7969198576205501,0.7238238914281805,0.6487357316601265,0.5710555637320263,0.49391362772792724,0.42153608700762324,0.3640039845149514,0.4017768852567025,0.47354594382096793,0.5409220880733399,0.5708285643171904,0.5782955005479038,0.5640672590060141,0.569832143781484,0.5786197390469541,0.5477465690999685,0.5101173624136437,0.4936697765430589,0.4869250239029783,0.512733330093482,0.5435579202078207,0.5871279030592225,0.6484874845735364,0.7081140558518064,0.777148514061865,0.8510014267256478,0.9226650736755961,0.9776372946116301,0.9481309002601452,0.8723677157536924,0.7952844236544974,0.7228240810527173,0.6465917521886952,0.5688796252933435,0.49121859352735764,0.4175073243915912,0.3867042416248856,0.44671339615953864,0.5183707695512805,0.5812508044694911,0.5960308724630252,0.5757626561256004,0.5702383532558404,0.5633627809540112,0.5514828501129416,0.5656549531613246,0.5561408520821567,0.523810311722192,0.5144655544097456,0.50088210244534,0.4948347095525534,0.5222218977028243,0.5502747013235891,0.5971991941671391,0.662754371423262,0.7323509468028508,0.8058792766480991,0.8783630038102224,0.9505240132023522,1.0,0.9609382937652384,0.8864517041125826,0.8139405876438146,0.7367907269917113,0.6590918265054473,0.5834768387668989,0.5106663222199324,0.4399028276210508,0.44462367256091073,0.514728521665244,0.5743830616029331,0.581312289448429,0.5845536436390688,0.589300991472069,0.572961349936453,0.5721657840738028,0.5751855032153861,0.5583625184827365,0.5555354400726167
0,1,2,3,4,5,6,7,8,9,10,11,12,13,14,15,16,17,18,19,20,21,22,23,24,25,26,27,28,29,30,31,32,33,34,35,36,37,38,39,40,41,42,43,44,45,46,47,48,49,50,51,52,53,54,55,56,57,58,59,60,61,62,63,64,65,66,67,68,69,70,71,72,73,74,75,76,77,78,79,80,81,82,83,84,85,86,87,88,89,90,91,92,93,94,95,96,97,98,99,100,101,102,103,104,105,106,107,108,109,110,111,112,113,114,115,116,117,118,119,120,121,122,123,124,125,126,127,128,129,130,131,132,133,134,135,136,137,138,139,140,141,142,143,144,145,146,147,148,149,150,151,152,153,154,155,156,157,158,159,160,161,162,163,164,165,166,167,168,169,170,171,172,173,174,175,176,177,178,179,180,181,182,183,184,185,186,187,188,189,190,191,192,193,194,195,196,197,198,199,200,201,202,203,204,205,206,207,208,209,210,211,212,213,214,215,216,217,218,219,220,221,222,223,224,225,226,227,228,229,230,231,232,233,234,235,236,237,238,239,240,241,242,243,244,245,246,247,248,249,250,251,252,253,254
0.6203451775177018,0.6010002728318167,0.5760830811471473,0.5837248240611133,0.594954025394199,0.5985212446623029,0.6195931610859,0.6544829743199618,0.688479688785844,0.6711950887986395,0.6188902546449975,0.5695281121048676,0.5297747421494234,0.5001816532165126,0.4901354836755958,0.5063509372303376,0.5112590441090259,0.5299182914884886,0.555181908839889,0.56499469868623,0.5689688863309965,0.5753181978349748,0.5738959440041196,0.5815034754469144,0.5968206407721033,0.6070738136077165,0.6077569309452544,0.6101898872606546,0.6208047347482382,0.633903887412584,0.6493042860371676,0.642350316695502,0.5938004504163428,0.5345181381459474,0.46945567207163763,0.39978542058551225,0.32276671445020244,0.25286948871425063,0.19757706176005807,0.21652481091057463,0.28810905707772316,0.3570465037791428,0.4332360621671336,0.5110565737647315,0.5888052238328285,0.6616313790682962,0.7329037325272574,0.8014133871718321,0.7850472009201983,0.7292814255315929,0.7008472104130559,0.6751076319076446,0.6612213495667487,0.6678075240668528,0.6833160414983412,0.7048944478118764,0.7392622711181791,0.7764846135589631,0.8115414064350275,0.8016795700080475,0.7520772933788193,0.6959638579105447,0.6406099928430744,0.58153007253453,0.5274942611708853,0.4863083565272621,0.45845570770828536,0.4539079746924266,0.4424572636815687,0.41801805240540313,0.37830160494314735,0.3289233270247294,0.28744921438993254,0.246316468931852,0.21820866890290014,0.19286189146572008,0.19697474292757877,0.21376460318324697,0.24205930603485792,0.26793322988060164,0.29316112302513453,0.3231077984679962,0.3597814270785398,0.39228917896708704,0.42071817234026443,0.4497748604404499,0.47934850006867324,0.4828281526735192,0.43332619106032966,0.36834526748313823,0.2940676111829572,0.2163321958672879,0.1431872942113106,0.07262927773230876,0.007836618523825889,0.0,0.061094571500573513,0.1382976811249732,0.2098830374726952,0.2818280309476726,0.3457900304699846,0.4145048018923456,0.4921847389644507,0.56798284993908,0.6365582016915536,0.6797335042517303,0.6373905257024197,0.6123711016306737,0.5799282534229921,0.5613986476342867,0.5619155909029852,0.5754330522257449,0.595170213674167,0.6227746365247211,0.6604282514271804,0.6924715398885937,0.6742096093635421,0.6554503841139963,0.6382002475405686,0.6388154062377531,0.6433839648888562,0.6508250648919058,0.6608224945688534,0.6664560857765891,0.6667846201499583,0.6756366885868084,0.6823914624238001,0.6869558014721062,0.6788147890790586,0.672002001423742,0.6803711925409832,0.7133687376277233,0.7172384439990824,0.7184260496524502,0.7279489183055019,0.7236454346682311,0.7168543959006399,0.7109556217969928,0.7084244821887435,0.6928774535172773,0.6838750610796533,0.6815454572898036,0.6794987572746227,0.6948760971175378,0.717630418152019,0.7374706704379674,0.7181801623515969,0.6798904767651788,0.6458018035376709,0.6211950542664852,0.6048220617397002,0.5996888035140446,0.6100227244506864,0.6450764307435293,0.6712258307986296,0.7229602328433851,0.7909967153856843,0.8445381203016158,0.827667965948863,0.7608126486905937,0.6854461299435735,0.6162905737821138,0.5393554457112533,0.46153259029986526,0.3843234097212058,0.3384890645836005,0.387151281747115,0.45238872445279465,0.5155713921364127,0.5342048869513454,0.5140531649674294,0.4827221552986798,0.45454786511705936,0.4253689109626324,0.39701466376964567,0.36008238405322546,0.32847284736684657,0.3017128191296692,0.275858002410855,0.2499311885789548,0.232712250663895,0.24402931894535596,0.27331309257379965,0.31199695805834415,0.35403721922833875,0.39813528846648283,0.4434117930877579,0.4733872983917238,0.4876239201815862,0.4920162332053899,0.49411774517996543,0.5277346515650896,0.5721962840830155,0.6260193556620535,0.6850449846856876,0.7464353825945271,0.7987511423492819,0.8475501153818681,0.8634821840046212,0.8359576536907309,0.8010406348075958,0.7635793451408892,0.7320554364710392,0.7114097909991184,0.7045755833375322,0.7126124352222876,0.7385980874466322,0.7713874273418067,0.8313501072292033,0.9050030794671522,0.9702053689153454,1.0,0.9549855866020764,0.8856509508538681,0.8082273692047495,0.7339007662337691,0.6639106614930395,0.5865238953962295,0.5120722304954992,0.5020745942879503,0.5645036855397945,0.630377048417897,0.6772794424103483,0.6916723386510499,0.6834428013607519,0.6671513536822822,0.6620980110818961,0.6491792522301862,0.6478253017021935,0.6446961577206727,0.6277777521566854,0.6152161386227111,0.6124729659489794,0.6113379741695666,0.6055677686340735,0.6011727158966613,0.5774708026739994,0.5578870729339169,0.5492915298871281,0.539209266709973,0.5452496219227758,0.5864832961521338,0.6309274411516508,0.6789129302155863,0.7199608033995983,0.7240738845404602,0.6919036183203877,0.6554537656077843,0.6329215217385191,0.6241681837651163,0.6192495787842964,0.6130465081498733,0.6429037016741046,0.6706408425256285,0.7052439108617548
0,1,2,3,4,5,6,7,8,9,10,11,12,13,14,15,16,17,18,19,20,21,22,23,24,25,26,27,28,29,30,31,32,33,34,35,36,37,38,39,40,41,42,43,44,45,46,47,48,49,50,51,52,53,54,55,56,57,58,59,60,61,62,63,64,65,66,67,68,69,70,71,72,73,74,75,76,77,78,79,80,81,82,83,84,85,86,87,88,89,90,91,92,93,94,95,96,97,98,99,100,101,102,103,104,105,106,107,108,109,110,111,112,113,114,115,116,117,118,119,120,121,122,123,124,125,126,127,128,129,130,131,132,133,134,135,136,137,138,139,140,141,142,143,144,145,146,147,148,149,150,151,152,153,154,155,156,157,158,159,160,161,162,163,164,165,166,167,168,169,170,171,172,173,174,175,176,177,178,179,180,181,182,183,184,185,186,187,188,189,190,191,192,193,194,195,196,197,198,199,200,201,202,203,204,205,206,207,208,209,210,211,212,213,214,215,216,217,218,219,220,221,222,223,224,225,226,227,228,229,230,231,232,233,234,235,236,237,238,239,240,241,242,243,244,245,246,247,248,249,250,251,252,253,254
0.6203451775177018,0.6010002728318167,0.5760830811471473,0.5837248240611133,0.594954025394199,0.5985212446623029,0.6195931610859,0.6544829743199618,0.688479688785844,0.6711950887986395,0.6188902546449975,0.5695281121048676,0.5297747421494234,0.5001816532165126,0.4901354836755958,0.5063509372303376,0.5112590441090259,0.5299182914884886,0.555181908839889,0.56499469868623,0.5689688863309965,0.5753181978349748,0.5738959440041196,0.5815034754469144,0.5968206407721033,0.6070738136077165,0.6077569309452544,0.6101898872606546,0.6208047347482382,0.633903887412584,0.6493042860371676,0.642350316695502,0.5938004504163428,0.5345181381459474,0.46945567207163763,0.39978542058551225,0.32276671445020244,0.25286948871425063,0.19757706176005807,0.21652481091057463,0.28810905707772316,0.3570465037791428,0.4332360621671336,0.5110565737647315,0.5888052238328285,0.6616313790682962,0.7329037325272574,0.8014133871718321,0.7850472009201983,0.7292814255315929,0.7008472104130559,0.6751076319076446,0.6612213495667487,0.6678075240668528,0.6833160414983412,0.7048944478118764,0.7392622711181791,0.7764846135589631,0.8115414064350275,0.8016795700080475,0.7520772933788193,0.6959638579105447,0.6406099928430744,0.58153007253453,0.5274942611708853,0.4863083565272621,0.45845570770828536,0.4539079746924266,0.4424572636815687,0.41801805240540313,0.37830160494314735,0.3289233270247294,0.28744921438993254,0.246316468931852,0.21820866890290014,0.19286189146572008,0.19697474292757877,0.21376460318324697,0.24205930603485792,0.26793322988060164,0.29316112302513453,0.3231077984679962,0.3597814270785398,0.39228917896708704,0.42071817234026443,0.4497748604404499,0.47934850006867324,0.4828281526735192,0.43332619106032966,0.36834526748313823,0.2940676111829572,0.2163321958672879,0.1431872942113106,0.07262927773230876,0.007836618523825889,0.0,0.061094571500573513,0.1382976811249732,0.2098830374726952,0.2818280309476726,0.3457900304699846,0.4145048018923456,0.4921847389644507,0.56798284993908,0.6365582016915536,0.6797335042517303,0.6373905257024197,0.6123711016306737,0.5799282534229921,0.5613986476342867,0.5619155909029852,0.5754330522257449,0.595170213674167,0.6227746365247211,0.6604282514271804,0.6924715398885937,0.6742096093635421,0.6554503841139963,0.6382002475405686,0.6388154062377531,0.6433839648888562,0.6508250648919058,0.6608224945688534,0.6664560857765891,0.6667846201499583,0.6756366885868084,0.6823914624238001,0.6869558014721062,0.6788147890790586,0.672002001423742,0.6803711925409832,0.7133687376277233,0.7172384439990824,0.7184260496524502,0.7279489183055019,0.7236454346682311,0.7168543959006399,0.7109556217969928,0.7084244821887435,0.6928774535172773,0.6838750610796533,0.6815454572898036,0.6794987572746227,0.6948760971175378,0.717630418152019,0.7374706704379674,0.7181801623515969,0.6798904767651788,0.6458018035376709,0.6211950542664852,0.6048220617397002,0.5996888035140446,0.6100227244506864,0.6450764307435293,0.6712258307986296,0.7229602328433851,0.7909967153856843,0.8445381203016158,0.827667965948863,0.7608126486905937,0.6854461299435735,0.6162905737821138,0.5393554457112533,0.46153259029986526,0.3843234097212058,0.3384890645836005,0.387151281747115,0.45238872445279465,0.5155713921364127,0.5342048869513454,0.5140531649674294,0.4827221552986798,0.45454786511705936,0.4253689109626324,0.39701466376964567,0.36008238405322546,0.32847284736684657,0.3017128191296692,0.275858002410855,0.2499311885789548,0.232712250663895,0.24402931894535596,0.27331309257379965,0.31199695805834415,0.35403721922833875,0.39813528846648283,0.4434117930877579,0.4733872983917238,0.4876239201815862,0.4920162332053899,0.49411774517996543,0.5277346515650896,0.5721962840830155,0.6260193556620535,0.6850449846856876,0.7464353825945271,0.7987511423492819,0.8475501153818681,0.8634821840046212,0.8359576536907309,0.8010406348075958,0.7635793451408892,0.7320554364710392,0.7114097909991184,0.7045755833375322,0.7126124352222876,0.7385980874466322,0.7713874273418067,0.8313501072292033,0.9050030794671522,0.9702053689153454,1.0,0.9549855866020764,0.8856509508538681,0.8082273692047495,0.7339007662337691,0.6639106614930395,0.5865238953962295,0.5120722304954992,0.5020745942879503,0.5645036855397945,0.630377048417897,0.6772794424103483,0.6916723386510499,0.6834428013607519,0.6671513536822822,0.6620980110818961,0.6491792522301862,0.6478253017021935,0.6446961577206727,0.6277777521566854,0.6152161386227111,0.6124729659489794,0.6113379741695666,0.6055677686340735,0.6011727158966613,0.5774708026739994,0.5578870729339169,0.5492915298871281,0.539209266709973,0.5452496219227758,0.5864832961521338,0.6309274411516508,0.6789129302155863,0.7199608033995983,0.7240738845404602,0.6919036183203877,0.6554537656077843,0.6329215217385191,0.6241681837651163,0.6192495787842964,0.6130465081498733,0.6429037016741046,0.6706408425256285,0.7052439108617548
0,1,2,3,4,5,6,7,8,9,10,11,12,13,14,15,16,17,18,19,20,21,22,23,24,25,26,27,28,29,30,31,32,33,34,35,36,37,38,39,40,41,42,43,44,45,46,47,48,49,50,51,52,53,54,55,56,57,58,59,60,61,62,63,64,65,66,67,68,69,70,71,72,73,74,75,76,77,78,79,80,81,82,83,84,85,86,87,88,89,90,91,92,93,94,95,96,97,98,99,100,101,102,103,104,105,106,107,108,109,110,111,112,113,114,115,116,117,118,119,120,121,122,123,124,125,126,127,128,129,130,131,132,133,134,135,136,137,138,139,140,141,142,143,144,145,146,147,148,149,150,151,152,153,154,155,156,157,158,159,160,161,162,163,164,165,166,167,168,169,170,171,172,173,174,175,176,177,178,179,180,181,182,183,184,185,186,187,188,189,190,191,192,193,194,195,196,197,198,199,200,201,202,203,204,205,206,207,208,209,210,211,212,213,214,215,216,217,218,219,220,221,222,223,224,225,226,227,228,229,230,231,232,233,234,235,236,237,238,239,240,241,242,243,244,245,246,247,248,249,250,251,252,253,254
0.28647018443275696,0.32582980716119736,0.3092980079376597,0.26130459071489354,0.23931737823955468,0.19941701258760647,0.14736367133160466,0.09536539654029164,0.04323968292906477,0.0,0.012465161093253352,0.06901299716318254,0.12966841452305367,0.19154270260591588,0.25440979457235613,0.31585657479559015,0.3777143744355915,0.4394188279234281,0.49105722890497794,0.5199306852084471,0.5152071457882723,0.5062409563707388,0.5078430655930837,0.5135225354551269,0.5154074550940007,0.49801947643538425,0.5042222110236687,0.5306391116922933,0.5523020152332645,0.5972090615473296,0.6615823011946991,0.7308296859716921,0.7986188253309312,0.8589258064450342,0.8350951991777542,0.7643534678347699,0.6937843280313969,0.6256358786735099,0.55448788668694,0.4867103345197963,0.4161566898055875,0.3489910187718853,0.2874563557735118,0.25693574590741874,0.2361890154703138,0.191805810170666,0.1400896780523858,0.08824607686246044,0.03699875441100209,0.016893632614425447,0.05773839057986496,0.11864197134153587,0.18143728114534918,0.24396548594063305,0.3064165493897537,0.3680547219377841,0.42863779365481314,0.4867860202070424,0.5286547424406811,0.5362753144415742,0.5270968489902954,0.527242429214789,0.5364377992073606,0.5366881646392478,0.5264855816567457,0.5458395533505465,0.5629070758056385,0.5958870852936995,0.6540525145053091,0.721368742689936,0.7741756318800268,0.7426583550269863,0.6749217552797326,0.6061465080434643,0.5445067587776966,0.47900817048864175,0.4085941543719569,0.34141818606343477,0.2787855588019654,0.23926001061171487,0.20599127348303248,0.15886777221730208,0.10851987536403462,0.057208909957495724,0.008793191357894137,0.004891112139887688,0.055407606859498304,0.11527628196624151,0.17697518261117584,0.23164037468600285,0.29112390444077063,0.3534132601375659,0.4156542916876348,0.4730807189045554,0.516197317104583,0.5281601907547646,0.5228263714870958,0.5217342604034998,0.5308929765030903,0.5267944182407802,0.5218435186653931,0.5442552512954042,0.5626712680437091,0.5995526516493617,0.6596880676254644,0.7279394397850782,0.7951132018571037,0.8172933343011639,0.757574965544658,0.6898598830591349,0.6183242699178495,0.5460219294186961,0.47426839232568874,0.40644356280126104,0.33833030829640576,0.2810707514600911,0.26963085795778263,0.2939965926725966,0.3495215699061217,0.417552842233192,0.48606948295795904,0.5557448843115065,0.6243710615322404,0.6938630963754815,0.7618443620473951,0.8323109069027186,0.9005448133325806,0.9693031250542703,1.0,0.9507809657150721,0.8832970142067371,0.813281059556265,0.745000328491511,0.6758513419926584,0.6138504443522057,0.5764297767411946,0.5588503523066446,0.5433164927922034,0.5514237442478656,0.5460970846792295,0.5404671104571295,0.5457885295062763,0.5463503934554732,0.5246820019558529,0.4754225096225231,0.41818543512484463,0.3578931804028527,0.29596594669147336,0.2337194329995278,0.17129742201841358,0.10558303074184139,0.04899068935193496,0.036692983515313804,0.08473830207074651,0.13699844090942626,0.18496512329244152,0.22960454912367134,0.26235167492378175,0.31070495012961163,0.37735036099692454,0.44529761045956073,0.5155795139493884,0.584021848709823,0.6539382523141402,0.7223218705866232,0.7917879456693824,0.8595277140991573,0.9285219830792293,0.9693156345399041,0.9295437273598097,0.8625604453975753,0.7935089912715183,0.7248409841369043,0.6622431563735325,0.6098729189691576,0.5814113874365485,0.5630930371661582,0.5489711034177422,0.5607429326887778,0.5529139687971767,0.5425452750789588,0.546486979635544,0.557878531268903,0.5524696469306811,0.5156115223080171,0.46151683205445737,0.4030958429488978,0.3424902080020419,0.2797706708735601,0.21671021637504073,0.1503236789733231,0.08843060284501425,0.04538960510106049,0.0709817971103528,0.12467760922825544,0.1764214952275439,0.2244800018339178,0.26469238092216907,0.29424601003125617,0.35107747757042373,0.41971648266203143,0.4883074002967105,0.5575481254398804,0.6265906947843767,0.6958469088702335,0.7648871161127042,0.8336779134136454,0.9029973448307218,0.967731017309245,0.9819386198685953,0.925007280430497,0.8559215233056268,0.7877337911941253,0.7176243288202044,0.6496824208464655,0.5895479689776202,0.5593288341958362,0.537795785553244,0.5181913789623389,0.5306873702671859,0.5329831536375567,0.5271858580662425,0.5236961522881609,0.5304928433370264,0.5409505738122184,0.5305397702603565,0.4920675776091512,0.4373678711558835,0.3862739863855371,0.32658944597497885,0.2646323526184017,0.20227918732564543,0.13825837942773656,0.07571525574197069,0.02838448726879128,0.04708049755736754,0.10100588949273248,0.15308414317549446,0.20358741750791787,0.24838582370750628,0.2831812143825888,0.331666837352699,0.39549042767053366,0.4632988103746438,0.5336699324007457,0.602946692519782,0.672171315345786,0.7424499287577009,0.8050910125691977,0.867764190557325,0.9351387409869669,0.9814309173100435,0.946518872149869,0.8792751636892029,0.8156282995147179
0,1,2,3,4,5,6,7,8,9,10,11,12,13,14,15,16,17,18,19,20,21,22,23,24,25,26,27,28,29,30,31,32,33,34,35,36,37,38,39,40,41,42,43,44,45,46,47,48,49,50,51,52,53,54,55,56,57,58,59,60,61,62,63,64,65,66,67,68,69,70,71,72,73,74,75,76,77,78,79,80,81,82,83,84,85,86,87,88,89,90,91,92,93,94,95,96,97,98,99,100,101,102,103,104,105,106,107,108,109,110,111,112,113,114,115,116,117,118,119,120,121,122,123,124,125,126,127,128,129,130,131,132,133,134,135,136,137,138,139,140,141,142,143,144,145,146,147,148,149,150,151,152,153,154,155,156,157,158,159,160,161,162,163,164,165,166,167,168,169,170,171,172,173,174,175,176,177,178,179,180,181,182,183,184,185,186,187,188,189,190,191,192,193,194,195,196,197,198,199,200,201,202,203,204,205,206,207,208,209,210,211,212,213,214,215,216,217,218,219,220,221,222,223,224,225,226,227,228,229,230,231,232,233,234,235,236,237,238,239,240,241,242,243,244,245,246,247,248,249,250,251,252,253,254
0.17462748021088448,0.24132102103037256,0.30476195262899697,0.37177280883980446,0.4434210702331278,0.4987338954824755,0.548312549036688,0.5782317411033363,0.5569289242263351,0.5542859680177253,0.6182155481439194,0.6915909619177043,0.7641110248994749,0.8330676283482579,0.8821886204327127,0.8427361920024135,0.781543635791081,0.7433017678445968,0.7178081260203701,0.6732477553320657,0.6295676278140677,0.6086054540271584,0.6072743159659063,0.6187658307948338,0.6095686882728873,0.6132566843384178,0.6335088975366955,0.637941465071708,0.627531168324102,0.6399892919471265,0.6511669243022626,0.6282056030715234,0.574752129431867,0.5121802112643805,0.44226342111054895,0.37214207493300644,0.3011257816961229,0.2290125143951216,0.1596364300055681,0.08659489422561084,0.016571531849467358,0.0,0.05900404832240619,0.13117799000529584,0.20040019905262785,0.2731736891744224,0.34656707077105575,0.4169675440621138,0.4864026295588427,0.5513237054271314,0.6218546758090308,0.6910862548468955,0.7638656778982897,0.834593445108248,0.8973267620105685,0.8864035266355019,0.8228800619618342,0.7658061152837798,0.738890469530227,0.7109194841441451,0.6690153303061616,0.6417010815299907,0.6220949552664172,0.6069396364516273,0.5904927346931746,0.5831813800542527,0.6078896976253446,0.623182041965343,0.6184399423611919,0.6354424021535153,0.6446387622588006,0.6225557489408654,0.5645364918172485,0.4949203843339728,0.42527306642323126,0.3535366470574951,0.2890935723171404,0.22419203938062393,0.1549979305260361,0.08407844574039403,0.020311432248349193,0.019926913076954156,0.08544524480058235,0.1466968952442237,0.2003979353050379,0.2662186150222198,0.33945416164118447,0.4099318616265927,0.48070632777986,0.5541436566268432,0.6271100783517486,0.6964091990801387,0.7687349511230308,0.8416870049475165,0.9093025706726443,0.932960460475107,0.8770829949418479,0.8123139369892474,0.762491568270647,0.7474713834411617,0.7174059970202098,0.6752844100059825,0.6489639804640372,0.6269025558005725,0.6156598403503554,0.5951362303489428,0.5885776976289696,0.6106366991831356,0.6142578421820142,0.6277472787689651,0.6463302723902312,0.6333249598300645,0.5791199027218633,0.5076064817182855,0.43827073734256083,0.3679435497053982,0.2976822029346766,0.22797022389499544,0.15654234629890224,0.08597479135157188,0.01956878571707099,0.007716786918760321,0.06841224255732187,0.13877337117613597,0.20933042837113958,0.2827455372506582,0.3562583109875266,0.42977108472439474,0.5032820837530818,0.5761662859314771,0.6454218665484942,0.7178730715793573,0.7911511547984373,0.8604536692333427,0.901658560741831,0.857325029358486,0.7955434230991782,0.7565031943401155,0.7488739716603294,0.7137662600005081,0.6686590657559851,0.6480724226208551,0.6635555273323884,0.69546805163565,0.7424886555438137,0.7719138035197117,0.788130563545993,0.8418380287101153,0.9065126954695624,0.9603513883561041,0.9492029036483998,0.8825975816338365,0.8128497384231745,0.7402727711146253,0.6710373568752825,0.5986033408531003,0.5297371901362475,0.4636182906072932,0.3946801411117449,0.32263906380566854,0.2733080293617939,0.31564725017510864,0.38604141358808075,0.4561833400258718,0.5267935452534986,0.5945895492139723,0.6467117286823727,0.6638531328513245,0.6562122714529471,0.6360688318554334,0.630136938704836,0.6096285993597487,0.6132038415446066,0.6334815559791809,0.6487657706006942,0.6710583634491223,0.701441610401806,0.7444696208692263,0.7687413561444987,0.787958760660898,0.8484009654986209,0.916124553461946,0.9774987600624383,1.0,0.9534661356734588,0.892673497490245,0.8206343229087101,0.7471276905325399,0.6736149167956731,0.6001022871015731,0.5268198323452961,0.45698176101115284,0.3854887949890804,0.3120876735747593,0.25196071301709344,0.2790989440713507,0.3499244341357608,0.41927175756027857,0.4910912731018928,0.5595370362807643,0.6219111732486282,0.6566469376399277,0.6638902291731763,0.64601300953195,0.6420301805007105,0.6405618297504885,0.6164894524296013,0.6037754807493347,0.6225768942866378,0.6331206176627059,0.6534113514233322,0.6715389272448689,0.7103507759925927,0.7471509162592236,0.7658870927639281,0.8090903550198145,0.8733419020784581,0.9374452468563308,0.978279624159125,0.9408988162782153,0.8729449353314052,0.8022320708016182,0.7292709840027787,0.6599058433182816,0.5877156488049466,0.5142803975933635,0.44341299498205944,0.37302555320680886,0.3008303256678647,0.269667591803443,0.32602018696607404,0.39730263448547287,0.4671337966568929,0.540290205229026,0.6093647226325329,0.6553118675630761,0.670295132481772,0.6639613003338104,0.6486902515584143,0.6594879023676724,0.6537592941896738,0.6344157939619984,0.6302828849844887,0.6369613996516722,0.6259782313209471,0.6307816817580038,0.6500309424035621,0.6952303072857755,0.7364458934234033,0.7622900368283028,0.8083985126246125,0.8722173028203815,0.9301263946649019,0.9325551656434381,0.8766265055563109
0,1,2,3,4,5,6,7,8,9,10,11,12,13,14,15,16,17,18,19,20,21,22,23,24,25,26,27,28,29,30,31,32,33,34,35,36,37,38,39,40,41,42,43,44,45,46,47,48,49,50,51,52,53,54,55,56,57,58,59,60,61,62,63,64,65,66,67,68,69,70,71,72,73,74,75,76,77,78,79,80,81,82,83,84,85,86,87,88,89,90,91,92,93,94,95,96,97,98,99,100,101,102,103,104,105,106,107,108,109,110,111,112,113,114,115,116,117,118,119,120,121,122,123,124,125,126,127,128,129,130,131,132,133,134,135,136,137,138,139,140,141,142,143,144,145,146,147,148,149,150,151,152,153,154,155,156,157,158,159,160,161,162,163,164,165,166,167,168,169,170,171,172,173,174,175,176,177,178,179,180,181,182,183,184,185,186,187,188,189,190,191,192,193,194,195,196,197,198,199,200,201,202,203,204,205,206,207,208,209,210,211,212,213,214,215,216,217,218,219,220,221,222,223,224,225,226,227,228,229,230,231,232,233,234,235,236,237,238,239,240,241,242,243,244,245,246,247,248,249,250,251,252,253,254
0.5392057244310511,0.5521018374081346,0.6004963448139524,0.6899733261054186,0.7805265634002707,0.8632593364147929,0.8524776301540624,0.7654338806736962,0.6751721411497258,0.5890724760670343,0.5074865559190289,0.43422391346061096,0.3775557010952968,0.32037069968501264,0.256413497407151,0.19545289096617524,0.13223051986051249,0.07686464855615127,0.06817216902656908,0.11744711677663311,0.18854828392398493,0.26251459935372545,0.34265193651127035,0.4195894704743508,0.47725923212055954,0.501110002225936,0.4796624954108939,0.4370642515887053,0.4485511901007664,0.49035273849402605,0.5239991978976206,0.5378245296601376,0.5511085372027165,0.5891685421250039,0.6686490952887929,0.7562042079580926,0.8442666020645897,0.8836071085215444,0.8235667597743304,0.7411907289629502,0.6521665057551924,0.5647007064179779,0.48543390461489033,0.4283526386958654,0.3753484786475454,0.31398459317597016,0.2520048725705879,0.1882716520639216,0.13237441055809707,0.11004585996842331,0.1485250309960393,0.21521999613394893,0.2902019432016514,0.3723633706528202,0.44723312624860356,0.5092050033561986,0.5404940509023068,0.5200520476959465,0.4684139296534313,0.4196401410956918,0.43629723766261974,0.48218761401890853,0.5028259367403318,0.49357750860261684,0.48985906247360655,0.5188093763644757,0.5949198533467437,0.6805203659204622,0.752472775303169,0.7112723264931182,0.6156843060134791,0.5285218472426061,0.4465101783223213,0.37731864579187646,0.31835612887615894,0.2610022488210739,0.20484746288252342,0.1414933290258169,0.0786446902086837,0.021902125487316182,0.0,0.041522858923145556,0.11297411905037613,0.19078115061931222,0.2663929962332716,0.33603471533381524,0.38521124182056377,0.3926252360344973,0.3647636625211421,0.31738516147224005,0.3118337361156591,0.37022554973081334,0.4137966426794366,0.44453170374740636,0.46330785854909595,0.490250205733338,0.5312520251233062,0.6129520101709958,0.7042202377075995,0.7921499962558378,0.8138981859394516,0.7332623187662157,0.6441901021089753,0.5578191022258856,0.4787763076224758,0.4079699732165132,0.3555988486600288,0.2994993907141732,0.23588022304040956,0.17137594235023723,0.10718901622581667,0.055661904758718794,0.06719737675588311,0.13100056167171448,0.20613519105516942,0.28422507890358006,0.36249963093940063,0.44113093859768204,0.5043665108657895,0.5304678273442691,0.5156111604943363,0.46876133194550373,0.47177719657712536,0.5240198425700062,0.5685855299709224,0.6052320988810844,0.6015879564060567,0.5597990415628673,0.5184132070368066,0.5361712231218603,0.5622807043203677,0.5538017653903813,0.5165469377227929,0.44763778395560694,0.3739362159685269,0.2969250780185959,0.21761818349927253,0.13952726737322707,0.08950440706727858,0.12602552503757614,0.19174695826299848,0.25700824667657307,0.3177582215842669,0.3765500907385515,0.4305826664528094,0.4944870692337324,0.5801798476297229,0.6678623272333264,0.7587117123665073,0.8492709715515263,0.9324040893317205,0.9472139919233447,0.8687952959236809,0.7757719712973665,0.686929068563314,0.6034312410269715,0.5484330517250746,0.5050174333770301,0.4846458354981775,0.4579153896473249,0.42202211636197373,0.37420842232212714,0.37153104089882216,0.41285882141041763,0.4286523396871804,0.4169501492447747,0.3694986220060019,0.30210101036365544,0.2243355901359423,0.14469410193977872,0.07492233179737973,0.044969471216853574,0.09259821081283137,0.15333628276919908,0.2164040940032339,0.2769101043244928,0.3319538045703938,0.391945139568771,0.4618430842903609,0.54224950181918,0.6285051817629326,0.7189599329331784,0.810058453732468,0.8788747471297118,0.8526920331852621,0.7708451658385422,0.6826873524423933,0.5984953939733175,0.5415494816561159,0.5291451347646161,0.5397847025674489,0.5321168575186073,0.49332711280638053,0.47358945763888616,0.5218586577327751,0.5612204547350073,0.5725243310637294,0.5453536460735375,0.48907596595875336,0.4119496000007856,0.33561372523232746,0.25881470303519016,0.18982025666596547,0.15312319477337977,0.19406152763569828,0.25750274307778365,0.32259358433657126,0.37995415373638686,0.4376028991816261,0.49176760269549225,0.5628516429825647,0.6467481630704304,0.7370480773500374,0.8346190293152829,0.9256698647305373,1.0000000000000002,0.9875409265314834,0.9076563777869,0.8183809697959299,0.7268006079823894,0.6395371165141432,0.5924953334035921,0.5703595762179652,0.5535707095409481,0.5204230976882724,0.4853276365398733,0.494301719919223,0.5266428421223182,0.5277507279365203,0.4991900926880246,0.4343233343787589,0.35951902555634363,0.28392811119796946,0.2088573746901452,0.1378874865972035,0.10922299441808136,0.15501967441022835,0.22233060431096785,0.28461769812539917,0.34586668307490664,0.4044276561721676,0.4602181284116098,0.5305181790078224,0.6195396508444324,0.7101179979624146,0.8005134138299865,0.8908533287213911,0.9745859775300902,0.9912619186729004,0.9172406671344902,0.8235614886823261,0.7335261888295073,0.6574463869305329,0.6053964923355746,0.5746350575494601
0,1,2,3,4,5,6,7,8,9,10,11,12,13,14,15,16,17,18,19,20,21,22,23,24,25,26,27,28,29,30,31,32,33,34,35,36,37,38,39,40,41,42,43,44,45,46,47,48,49,50,51,52,53,54,55,56,57,58,59,60,61,62,63,64,65,66,67,68,69,70,71,72,73,74,75,76,77,78,79,80,81,82,83,84,85,86,87,88,89,90,91,92,93,94,95,96,97,98,99,100,101,102,103,104,105,106,107,108,109,110,111,112,113,114,115,116,117,118,119,120,121,122,123,124,125,126,127,128,129,130,131,132,133,134,135,136,137,138,139,140,141,142,143,144,145,146,147,148,149,150,151,152,153,154,155,156,157,158,159,160,161,162,163,164,165,166,167,168,169,170,171,172,173,174,175,176,177,178,179,180,181,182,183,184,185,186,187,188,189,190,191,192,193,194,195,196,197,198,199,200,201,202,203,204,205,206,207,208,209,210,211,212,213,214,215,216,217,218,219,220,221,222,223,224,225,226,227,228,229,230,231,232,233,234,235,236,237,238,239,240,241,242,243,244,245,246,247,248,249,250,251,252,253,254
0.0,0.06266372244773444,0.08740544830683272,0.10278847016291826,0.09321362178934356,0.04183436584675615,0.012593537733692983,0.08541820953173485,0.16196126964134505,0.24187153484404855,0.3308655370806943,0.41819112530025926,0.5065757037825191,0.5863945915023452,0.5941190896183492,0.51834178446251,0.43570248993864524,0.34998887583655636,0.2735119618020978,0.21607521378710315,0.19282355607727464,0.19128303140486902,0.1802310461422565,0.16655662074203126,0.12755550649494496,0.1268497904947512,0.15784630864240135,0.17761159414480576,0.24879924158593103,0.3357036349502991,0.43895901482128896,0.5488451967885215,0.5919696180703027,0.5033648459546973,0.39813093653112275,0.2951133556149679,0.19849976879501474,0.11633564272657226,0.07027524215147185,0.07028900735376098,0.11004038667077087,0.17645508321592307,0.2574732545399441,0.3442088845143141,0.43278972192102216,0.5241178532203494,0.6115618830878411,0.6242284526211126,0.5501585750244096,0.46008705507234593,0.37682540656200003,0.3030709657058217,0.2406701704145655,0.2122042769695307,0.21022175439568414,0.20379874922558106,0.176749117811263,0.15540867108646106,0.18496527336452218,0.20629045331371,0.2674893589730398,0.3535482427426764,0.4580516843805804,0.5668852277740015,0.6191803234790192,0.5375829540658623,0.43373398963940035,0.33057387645348624,0.231106054194524,0.14285526768241374,0.08957176738549077,0.08231677914569357,0.11723436318696234,0.18616319173980633,0.2648084470436092,0.3493239031679598,0.4411570160064755,0.5365925953463297,0.6164992345566405,0.6129977418192052,0.5325640312346356,0.44678643269828777,0.3657735585193025,0.29250654882359206,0.23305255999292807,0.21464528628032342,0.2150459690280737,0.2111056476724853,0.18964148802469838,0.14574416997876272,0.15209250017693843,0.19128182092071722,0.23683140030952843,0.3173444015366669,0.41125562277915884,0.5159829732052472,0.6242359225587895,0.6978973597848532,0.6310135246977877,0.525239570186522,0.42008877821623924,0.316115985513965,0.21783527614545561,0.13371975349999587,0.09067744685047963,0.08309653038768605,0.12125960805157754,0.18912503653124957,0.27263821093604523,0.36750122520075945,0.45801895747492916,0.5475479857584196,0.6157530600650052,0.5868282999013781,0.5046372338203455,0.4213472179178719,0.33735715948563905,0.26102410610354476,0.21642710273872656,0.20388688253701903,0.2010420833395814,0.22378977024945645,0.23510869266066514,0.24876897709762802,0.27294202931649725,0.336328784093495,0.4200554585889289,0.4995079120370636,0.5756704530090886,0.6516822858652973,0.6760386057229693,0.6175588551596731,0.5342991453844399,0.4383573433852148,0.34424862260439326,0.25779976269717664,0.18104775896413172,0.12533520445000845,0.12917278386813846,0.18176374181927435,0.26951931633951665,0.36890655267764694,0.47883654614204785,0.5911866735616744,0.6967846969774687,0.8038624874816436,0.9083432066982637,1.0,0.9826578967769777,0.8798508461741505,0.7742610814850162,0.664965388169934,0.5561201050307787,0.45146781317914564,0.35629388696845954,0.27424253212140615,0.22347688344189165,0.18451816397496867,0.21299186148846516,0.2398821052806428,0.2501765384781105,0.2505155220704087,0.25864305724078873,0.3115091700246393,0.3896736366928466,0.47158358981905524,0.5539478376149791,0.6367391559166777,0.6829560774091155,0.635389800843051,0.5478968280655785,0.4578720990763343,0.367265036776939,0.2825453307733232,0.20024510437426057,0.13827423154484286,0.11989238869369823,0.14944897009979563,0.23738379768318163,0.3363451663083088,0.43895907491090735,0.5449706980097959,0.6515423297776382,0.7573908727167917,0.8636040520519637,0.9516556948297654,0.983972661075708,0.898348801386017,0.7862242349585911,0.6801024009019976,0.5712987610399094,0.4599461180305848,0.36449599211673256,0.2913736396378872,0.233802098368749,0.19980487919092105,0.21795484228675033,0.24176556634294655,0.24354383750446829,0.24802225927615384,0.26685284813236065,0.32775671694686115,0.4042397270522522,0.4863939668760202,0.5717613445540128,0.6548687464476743,0.693659428274108,0.6391595742904586,0.5536952018243997,0.463537602787643,0.375152903403412,0.2864903365773752,0.2017254793346055,0.1364839766779704,0.10412341258854307,0.1302740486944658,0.20916760613482,0.3063718125608621,0.40945444244541385,0.5061764688278982,0.6006123210771235,0.7062192585570055,0.8124910723696894,0.9145982289444308,0.9589894492999278,0.8809643387274044,0.7716208607098247,0.663176185259057,0.5567880218301116,0.44707526233909833,0.3466601430921963,0.2685931631374523,0.21348969359938907,0.17880110377913638,0.18425506821420923,0.21124334777773135,0.22210214241237058,0.23083570452120128,0.2357363137747417,0.27696441041756725,0.3465137352276637,0.42840012144586836,0.5175085731697076,0.5989496603369369,0.6626524592339464,0.6422398942494274,0.5684476432972634,0.4810976437464598,0.38969319608074215,0.30854529148797405,0.23118261068164947,0.1626614556877799,0.14457359791749003,0.1713913394059896,0.1750772112580068
0,1,2,3,4,5,6,7,8,9,10,11,12,13,14,15,16,17,18,19,20,21,22,23,24,25,26,27,28,29,30,31,32,33,34,35,36,37,38,39,40,41,42,43,44,45,46,47,48,49,50,51,52,53,54,55,56,57,58,59,60,61,62,63,64,65,66,67,68,69,70,71,72,73,74,75,76,77,78,79,80,81,82,83,84,85,86,87,88,89,90,91,92,93,94,95,96,97,98,99,100,101,102,103,104,105,106,107,108,109,110,111,112,113,114,115,116,117,118,119,120,121,122,123,124,125,126,127,128,129,130,131,132,133,134,135,136,137,138,139,140,141,142,143,144,145,146,147,148,149,150,151,152,153,154,155,156,157,158,159,160,161,162,163,164,165,166,167,168,169,170,171,172,173,174,175,176,177,178,179,180,181,182,183,184,185,186,187,188,189,190,191,192,193,194,195,196,197,198,199,200,201,202,203,204,205,206,207,208,209,210,211,212,213,214,215,216,217,218,219,220,221,222,223,224,225,226,227,228,229,230,231,232,233,234,235,236,237,238,239,240,241,242,243,244,245,246,247,248,249,250,251,252,253,254
0.0,0.06266372244773444,0.08740544830683272,0.10278847016291826,0.09321362178934356,0.04183436584675615,0.012593537733692983,0.08541820953173485,0.16196126964134505,0.24187153484404855,0.3308655370806943,0.41819112530025926,0.5065757037825191,0.5863945915023452,0.5941190896183492,0.51834178446251,0.43570248993864524,0.34998887583655636,0.2735119618020978,0.21607521378710315,0.19282355607727464,0.19128303140486902,0.1802310461422565,0.16655662074203126,0.12755550649494496,0.1268497904947512,0.15784630864240135,0.17761159414480576,0.24879924158593103,0.3357036349502991,0.43895901482128896,0.5488451967885215,0.5919696180703027,0.5033648459546973,0.39813093653112275,0.2951133556149679,0.19849976879501474,0.11633564272657226,0.07027524215147185,0.07028900735376098,0.11004038667077087,0.17645508321592307,0.2574732545399441,0.3442088845143141,0.43278972192102216,0.5241178532203494,0.6115618830878411,0.6242284526211126,0.5501585750244096,0.46008705507234593,0.37682540656200003,0.3030709657058217,0.2406701704145655,0.2122042769695307,0.21022175439568414,0.20379874922558106,0.176749117811263,0.15540867108646106,0.18496527336452218,0.20629045331371,0.2674893589730398,0.3535482427426764,0.4580516843805804,0.5668852277740015,0.6191803234790192,0.5375829540658623,0.43373398963940035,0.33057387645348624,0.231106054194524,0.14285526768241374,0.08957176738549077,0.08231677914569357,0.11723436318696234,0.18616319173980633,0.2648084470436092,0.3493239031679598,0.4411570160064755,0.5365925953463297,0.6164992345566405,0.6129977418192052,0.5325640312346356,0.44678643269828777,0.3657735585193025,0.29250654882359206,0.23305255999292807,0.21464528628032342,0.2150459690280737,0.2111056476724853,0.18964148802469838,0.14574416997876272,0.15209250017693843,0.19128182092071722,0.23683140030952843,0.3173444015366669,0.41125562277915884,0.5159829732052472,0.6242359225587895,0.6978973597848532,0.6310135246977877,0.525239570186522,0.42008877821623924,0.316115985513965,0.21783527614545561,0.13371975349999587,0.09067744685047963,0.08309653038768605,0.12125960805157754,0.18912503653124957,0.27263821093604523,0.36750122520075945,0.45801895747492916,0.5475479857584196,0.6157530600650052,0.5868282999013781,0.5046372338203455,0.4213472179178719,0.33735715948563905,0.26102410610354476,0.21642710273872656,0.20388688253701903,0.2010420833395814,0.22378977024945645,0.23510869266066514,0.24876897709762802,0.27294202931649725,0.336328784093495,0.4200554585889289,0.4995079120370636,0.5756704530090886,0.6516822858652973,0.6760386057229693,0.6175588551596731,0.5342991453844399,0.4383573433852148,0.34424862260439326,0.25779976269717664,0.18104775896413172,0.12533520445000845,0.12917278386813846,0.18176374181927435,0.26951931633951665,0.36890655267764694,0.47883654614204785,0.5911866735616744,0.6967846969774687,0.8038624874816436,0.9083432066982637,1.0,0.9826578967769777,0.8798508461741505,0.7742610814850162,0.664965388169934,0.5561201050307787,0.45146781317914564,0.35629388696845954,0.27424253212140615,0.22347688344189165,0.18451816397496867,0.21299186148846516,0.2398821052806428,0.2501765384781105,0.2505155220704087,0.25864305724078873,0.3115091700246393,0.3896736366928466,0.47158358981905524,0.5539478376149791,0.6367391559166777,0.6829560774091155,0.635389800843051,0.5478968280655785,0.4578720990763343,0.367265036776939,0.2825453307733232,0.20024510437426057,0.13827423154484286,0.11989238869369823,0.14944897009979563,0.23738379768318163,0.3363451663083088,0.43895907491090735,0.5449706980097959,0.6515423297776382,0.7573908727167917,0.8636040520519637,0.9516556948297654,0.983972661075708,0.898348801386017,0.7862242349585911,0.6801024009019976,0.5712987610399094,0.4599461180305848,0.36449599211673256,0.2913736396378872,0.233802098368749,0.19980487919092105,0.21795484228675033,0.24176556634294655,0.24354383750446829,0.24802225927615384,0.26685284813236065,0.32775671694686115,0.4042397270522522,0.4863939668760202,0.5717613445540128,0.6548687464476743,0.693659428274108,0.6391595742904586,0.5536952018243997,0.463537602787643,0.375152903403412,0.2864903365773752,0.2017254793346055,0.1364839766779704,0.10412341258854307,0.1302740486944658,0.20916760613482,0.3063718125608621,0.40945444244541385,0.5061764688278982,0.6006123210771235,0.7062192585570055,0.8124910723696894,0.9145982289444308,0.9589894492999278,0.8809643387274044,0.7716208607098247,0.663176185259057,0.5567880218301116,0.44707526233909833,0.3466601430921963,0.2685931631374523,0.21348969359938907,0.17880110377913638,0.18425506821420923,0.21124334777773135,0.22210214241237058,0.23083570452120128,0.2357363137747417,0.27696441041756725,0.3465137352276637,0.42840012144586836,0.5175085731697076,0.5989496603369369,0.6626524592339464,0.6422398942494274,0.5684476432972634,0.4810976437464598,0.38969319608074215,0.30854529148797405,0.23118261068164947,0.1626614556877799,0.14457359791749003,0.1713913394059896,0.1750772112580068
0,1,2,3,4,5,6,7,8,9,10,11,12,13,14,15,16,17,18,19,20,21,22,23,24,25,26,27,28,29,30,31,32,33,34,35,36,37,38,39,40,41,42,43,44,45,46,47,48,49,50,51,52,53,54,55,56,57,58,59,60,61,62,63,64,65,66,67,68,69,70,71,72,73,74,75,76,77,78,79,80,81,82,83,84,85,86,87,88,89,90,91,92,93,94,95,96,97,98,99,100,101,102,103,104,105,106,107,108,109,110,111,112,113,114,115,116,117,118,119,120,121,122,123,124,125,126,127,128,129,130,131,132,133,134,135,136,137,138,139,140,141,142,143,144,145,146,147,148,149,150,151,152,153,154,155,156,157,158,159,160,161,162,163,164,165,166,167,168,169,170,171,172,173,174,175,176,177,178,179,180,181,182,183,184,185,186,187,188,189,190,191,192,193,194,195,196,197,198,199,200,201,202,203,204,205,206,207,208,209,210,211,212,213,214,215,216,217,218,219,220,221,222,223,224,225,226,227,228,229,230,231,232,233,234,235,236,237,238,239,240,241,242,243,244,245,246,247,248,249,250,251,252,253,254
0.6203451775177018,0.6010002728318167,0.5760830811471473,0.5837248240611133,0.594954025394199,0.5985212446623029,0.6195931610859,0.6544829743199618,0.688479688785844,0.6711950887986395,0.6188902546449975,0.5695281121048676,0.5297747421494234,0.5001816532165126,0.4901354836755958,0.5063509372303376,0.5112590441090259,0.5299182914884886,0.555181908839889,0.56499469868623,0.5689688863309965,0.5753181978349748,0.5738959440041196,0.5815034754469144,0.5968206407721033,0.6070738136077165,0.6077569309452544,0.6101898872606546,0.6208047347482382,0.633903887412584,0.6493042860371676,0.642350316695502,0.5938004504163428,0.5345181381459474,0.46945567207163763,0.39978542058551225,0.32276671445020244,0.25286948871425063,0.19757706176005807,0.21652481091057463,0.28810905707772316,0.3570465037791428,0.4332360621671336,0.5110565737647315,0.5888052238328285,0.6616313790682962,0.7329037325272574,0.8014133871718321,0.7850472009201983,0.7292814255315929,0.7008472104130559,0.6751076319076446,0.6612213495667487,0.6678075240668528,0.6833160414983412,0.7048944478118764,0.7392622711181791,0.7764846135589631,0.8115414064350275,0.8016795700080475,0.7520772933788193,0.6959638579105447,0.6406099928430744,0.58153007253453,0.5274942611708853,0.4863083565272621,0.45845570770828536,0.4539079746924266,0.4424572636815687,0.41801805240540313,0.37830160494314735,0.3289233270247294,0.28744921438993254,0.246316468931852,0.21820866890290014,0.19286189146572008,0.19697474292757877,0.21376460318324697,0.24205930603485792,0.26793322988060164,0.29316112302513453,0.3231077984679962,0.3597814270785398,0.39228917896708704,0.42071817234026443,0.4497748604404499,0.47934850006867324,0.4828281526735192,0.43332619106032966,0.36834526748313823,0.2940676111829572,0.2163321958672879,0.1431872942113106,0.07262927773230876,0.007836618523825889,0.0,0.061094571500573513,0.1382976811249732,0.2098830374726952,0.2818280309476726,0.3457900304699846,0.4145048018923456,0.4921847389644507,0.56798284993908,0.6365582016915536,0.6797335042517303,0.6373905257024197,0.6123711016306737,0.5799282534229921,0.5613986476342867,0.5619155909029852,0.5754330522257449,0.595170213674167,0.6227746365247211,0.6604282514271804,0.6924715398885937,0.6742096093635421,0.6554503841139963,0.6382002475405686,0.6388154062377531,0.6433839648888562,0.6508250648919058,0.6608224945688534,0.6664560857765891,0.6667846201499583,0.6756366885868084,0.6823914624238001,0.6869558014721062,0.6788147890790586,0.672002001423742,0.6803711925409832,0.7133687376277233,0.7172384439990824,0.7184260496524502,0.7279489183055019,0.7236454346682311,0.7168543959006399,0.7109556217969928,0.7084244821887435,0.6928774535172773,0.6838750610796533,0.6815454572898036,0.6794987572746227,0.6948760971175378,0.717630418152019,0.7374706704379674,0.7181801623515969,0.6798904767651788,0.6458018035376709,0.6211950542664852,0.6048220617397002,0.5996888035140446,0.6100227244506864,0.6450764307435293,0.6712258307986296,0.7229602328433851,0.7909967153856843,0.8445381203016158,0.827667965948863,0.7608126486905937,0.6854461299435735,0.6162905737821138,0.5393554457112533,0.46153259029986526,0.3843234097212058,0.3384890645836005,0.387151281747115,0.45238872445279465,0.5155713921364127,0.5342048869513454,0.5140531649674294,0.4827221552986798,0.45454786511705936,0.4253689109626324,0.39701466376964567,0.36008238405322546,0.32847284736684657,0.3017128191296692,0.275858002410855,0.2499311885789548,0.232712250663895,0.24402931894535596,0.27331309257379965,0.31199695805834415,0.35403721922833875,0.39813528846648283,0.4434117930877579,0.4733872983917238,0.4876239201815862,0.4920162332053899,0.49411774517996543,0.5277346515650896,0.5721962840830155,0.6260193556620535,0.6850449846856876,0.7464353825945271,0.7987511423492819,0.8475501153818681,0.8634821840046212,0.8359576536907309,0.8010406348075958,0.7635793451408892,0.7320554364710392,0.7114097909991184,0.7045755833375322,0.7126124352222876,0.7385980874466322,0.7713874273418067,0.8313501072292033,0.9050030794671522,0.9702053689153454,1.0,0.9549855866020764,0.8856509508538681,0.8082273692047495,0.7339007662337691,0.6639106614930395,0.5865238953962295,0.5120722304954992,0.5020745942879503,0.5645036855397945,0.630377048417897,0.6772794424103483,0.6916723386510499,0.6834428013607519,0.6671513536822822,0.6620980110818961,0.6491792522301862,0.6478253017021935,0.6446961577206727,0.6277777521566854,0.6152161386227111,0.6124729659489794,0.6113379741695666,0.6055677686340735,0.6011727158966613,0.5774708026739994,0.5578870729339169,0.5492915298871281,0.539209266709973,0.5452496219227758,0.5864832961521338,0.6309274411516508,0.6789129302155863,0.7199608033995983,0.7240738845404602,0.6919036183203877,0.6554537656077843,0.6329215217385191,0.6241681837651163,0.6192495787842964,0.6130465081498733,0.6429037016741046,0.6706408425256285,0.7052439108617548
0,1,2,3,4,5,6,7,8,9,10,11,12,13,14,15,16,17,18,19,20,21,22,23,24,25,26,27,28,29,30,31,32,33,34,35,36,37,38,39,40,41,42,43,44,45,46,47,48,49,50,51,52,53,54,55,56,57,58,59,60,61,62,63,64,65,66,67,68,69,70,71,72,73,74,75,76,77,78,79,80,81,82,83,84,85,86,87,88,89,90,91,92,93,94,95,96,97,98,99,100,101,102,103,104,105,106,107,108,109,110,111,112,113,114,115,116,117,118,119,120,121,122,123,124,125,126,127,128,129,130,131,132,133,134,135,136,137,138,139,140,141,142,143,144,145,146,147,148,149,150,151,152,153,154,155,156,157,158,159,160,161,162,163,164,165,166,167,168,169,170,171,172,173,174,175,176,177,178,179,180,181,182,183,184,185,186,187,188,189,190,191,192,193,194,195,196,197,198,199,200,201,202,203,204,205,206,207,208,209,210,211,212,213,214,215,216,217,218,219,220,221,222,223,224,225,226,227,228,229,230,231,232,233,234,235,236,237,238,239,240,241,242,243,244,245,246,247,248,249,250,251,252,253,254
0.6203451775177018,0.6010002728318167,0.5760830811471473,0.5837248240611133,0.594954025394199,0.5985212446623029,0.6195931610859,0.6544829743199618,0.688479688785844,0.6711950887986395,0.6188902546449975,0.5695281121048676,0.5297747421494234,0.5001816532165126,0.4901354836755958,0.5063509372303376,0.5112590441090259,0.5299182914884886,0.555181908839889,0.56499469868623,0.5689688863309965,0.5753181978349748,0.5738959440041196,0.5815034754469144,0.5968206407721033,0.6070738136077165,0.6077569309452544,0.6101898872606546,0.6208047347482382,0.633903887412584,0.6493042860371676,0.642350316695502,0.5938004504163428,0.5345181381459474,0.46945567207163763,0.39978542058551225,0.32276671445020244,0.25286948871425063,0.19757706176005807,0.21652481091057463,0.28810905707772316,0.3570465037791428,0.4332360621671336,0.5110565737647315,0.5888052238328285,0.6616313790682962,0.7329037325272574,0.8014133871718321,0.7850472009201983,0.7292814255315929,0.7008472104130559,0.6751076319076446,0.6612213495667487,0.6678075240668528,0.6833160414983412,0.7048944478118764,0.7392622711181791,0.7764846135589631,0.8115414064350275,0.8016795700080475,0.7520772933788193,0.6959638579105447,0.6406099928430744,0.58153007253453,0.5274942611708853,0.4863083565272621,0.45845570770828536,0.4539079746924266,0.4424572636815687,0.41801805240540313,0.37830160494314735,0.3289233270247294,0.28744921438993254,0.246316468931852,0.21820866890290014,0.19286189146572008,0.19697474292757877,0.21376460318324697,0.24205930603485792,0.26793322988060164,0.29316112302513453,0.3231077984679962,0.3597814270785398,0.39228917896708704,0.42071817234026443,0.4497748604404499,0.47934850006867324,0.4828281526735192,0.43332619106032966,0.36834526748313823,0.2940676111829572,0.2163321958672879,0.1431872942113106,0.07262927773230876,0.007836618523825889,0.0,0.061094571500573513,0.1382976811249732,0.2098830374726952,0.2818280309476726,0.3457900304699846,0.4145048018923456,0.4921847389644507,0.56798284993908,0.6365582016915536,0.6797335042517303,0.6373905257024197,0.6123711016306737,0.5799282534229921,0.5613986476342867,0.5619155909029852,0.5754330522257449,0.595170213674167,0.6227746365247211,0.6604282514271804,0.6924715398885937,0.6742096093635421,0.6554503841139963,0.6382002475405686,0.6388154062377531,0.6433839648888562,0.6508250648919058,0.6608224945688534,0.6664560857765891,0.6667846201499583,0.6756366885868084,0.6823914624238001,0.6869558014721062,0.6788147890790586,0.672002001423742,0.6803711925409832,0.7133687376277233,0.7172384439990824,0.7184260496524502,0.7279489183055019,0.7236454346682311,0.7168543959006399,0.7109556217969928,0.7084244821887435,0.6928774535172773,0.6838750610796533,0.6815454572898036,0.6794987572746227,0.6948760971175378,0.717630418152019,0.7374706704379674,0.7181801623515969,0.6798904767651788,0.6458018035376709,0.6211950542664852,0.6048220617397002,0.5996888035140446,0.6100227244506864,0.6450764307435293,0.6712258307986296,0.7229602328433851,0.7909967153856843,0.8445381203016158,0.827667965948863,0.7608126486905937,0.6854461299435735,0.6162905737821138,0.5393554457112533,0.46153259029986526,0.3843234097212058,0.3384890645836005,0.387151281747115,0.45238872445279465,0.5155713921364127,0.5342048869513454,0.5140531649674294,0.4827221552986798,0.45454786511705936,0.4253689109626324,0.39701466376964567,0.36008238405322546,0.32847284736684657,0.3017128191296692,0.275858002410855,0.2499311885789548,0.232712250663895,0.24402931894535596,0.27331309257379965,0.31199695805834415,0.35403721922833875,0.39813528846648283,0.4434117930877579,0.4733872983917238,0.4876239201815862,0.4920162332053899,0.49411774517996543,0.5277346515650896,0.5721962840830155,0.6260193556620535,0.6850449846856876,0.7464353825945271,0.7987511423492819,0.8475501153818681,0.8634821840046212,0.8359576536907309,0.8010406348075958,0.7635793451408892,0.7320554364710392,0.7114097909991184,0.7045755833375322,0.7126124352222876,0.7385980874466322,0.7713874273418067,0.8313501072292033,0.9050030794671522,0.9702053689153454,1.0,0.9549855866020764,0.8856509508538681,0.8082273692047495,0.7339007662337691,0.6639106614930395,0.5865238953962295,0.5120722304954992,0.5020745942879503,0.5645036855397945,0.630377048417897,0.6772794424103483,0.6916723386510499,0.6834428013607519,0.6671513536822822,0.6620980110818961,0.6491792522301862,0.6478253017021935,0.6446961577206727,0.6277777521566854,0.6152161386227111,0.6124729659489794,0.6113379741695666,0.6055677686340735,0.6011727158966613,0.5774708026739994,0.5578870729339169,0.5492915298871281,0.539209266709973,0.5452496219227758,0.5864832961521338,0.6309274411516508,0.6789129302155863,0.7199608033995983,0.7240738845404602,0.6919036183203877,0.6554537656077843,0.6329215217385191,0.6241681837651163,0.6192495787842964,0.6130465081498733,0.6429037016741046,0.6706408425256285,0.7052439108617548
0,1,2,3,4,5,6,7,8,9,10,11,12,13,14,15,16,17,18,19,20,21,22,23,24,25,26,27,28,29,30,31,32,33,34,35,36,37,38,39,40,41,42,43,44,45,46,47,48,49,50,51,52,53,54,55,56,57,58,59,60,61,62,63,64,65,66,67,68,69,70,71,72,73,74,75,76,77,78,79,80,81,82,83,84,85,86,87,88,89,90,91,92,93,94,95,96,97,98,99,100,101,102,103,104,105,106,107,108,109,110,111,112,113,114,115,116,117,118,119,120,121,122,123,124,125,126,127,128,129,130,131,132,133,134,135,136,137,138,139,140,141,142,143,144,145,146,147,148,149,150,151,152,153,154,155,156,157,158,159,160,161,162,163,164,165,166,167,168,169,170,171,172,173,174,175,176,177,178,179,180,181,182,183,184,185,186,187,188,189,190,191,192,193,194,195,196,197,198,199,200,201,202,203,204,205,206,207,208,209,210,211,212,213,214,215,216,217,218,219,220,221,222,223,224,225,226,227,228,229,230,231,232,233,234,235,236,237,238,239,240,241,242,243,244,245,246,247,248,249,250,251,252,253,254
0.30201622963938746,0.2767856388729867,0.24517369384452226,0.21664292669459428,0.1898874362380566,0.15332970209254781,0.17303235280272156,0.23652203111261605,0.2902603487491947,0.27958802787819115,0.2089929140311345,0.12592256873036,0.04670379933164781,0.032771959135454054,0.10658584594497567,0.19250433852274818,0.2677286851893027,0.3520108572250723,0.44075130906835935,0.5295662424464306,0.6164405503694669,0.645894166478841,0.5719714953653575,0.48804411078069243,0.40672458882525364,0.3345738009491205,0.2858208139052637,0.25677109533522346,0.2307994517663089,0.23544527697462903,0.2824213491829507,0.3192970021293674,0.30940618198775993,0.29126018505050844,0.26967599783917573,0.29058749348102875,0.28048159391779215,0.20947543555835269,0.12716444734319576,0.051739932930373045,0.05501982246324222,0.1328195631421577,0.21897843017426488,0.30774478320656173,0.3965602042330908,0.4848572460548396,0.5620729466784641,0.5760290880491449,0.4990094531481265,0.4172780913642641,0.3435074322732593,0.28916829316725134,0.2610584808386248,0.2379774484259386,0.2431938640692456,0.28929772899503703,0.3272606587846175,0.3226701504383599,0.30388657969701705,0.2764352376975491,0.2943803933434862,0.29486880782182456,0.2287847871346561,0.14617939723470375,0.06460533924412704,0.02493301938395287,0.08597069840142058,0.16954279829340546,0.25780064285136317,0.3466152617849484,0.4354310480338873,0.5242468342828267,0.6128405676051686,0.6778372110334231,0.6320866178906498,0.5499493071179512,0.47362327699611295,0.39609278530877534,0.32650982709348686,0.27862320835930376,0.2529158620475961,0.23473612179536285,0.253368839131242,0.3015361046416277,0.3260992947091551,0.31017688887881734,0.27961892355664586,0.26622723852153196,0.29588943486194663,0.2727034166178227,0.19703525508480413,0.11350112997553963,0.03333606270724665,0.008069547873213012,0.0759758965635613,0.1639908208221511,0.2528049447689532,0.34162073101789214,0.43043651726683263,0.5192508399544237,0.6057431191491699,0.6322786299819522,0.5608640562106261,0.4763976730982805,0.3952315432603485,0.3246941388603525,0.27910723694301887,0.25312157106018673,0.23796283495422366,0.26441393662002544,0.31256820579527045,0.32590205755624246,0.30956551004706656,0.2770270709992503,0.26760888532330085,0.2900470924036388,0.25379765022865086,0.17447636012881362,0.09066036798072075,0.011441616995484405,0.0,0.07832230829822395,0.16704272692356736,0.2534071752054544,0.3380377602291186,0.4266093219612689,0.5154249728736263,0.6041266070712833,0.6766269907696031,0.6459539125990109,0.5592880082169075,0.4705542753301949,0.3848260173437098,0.3035754674629977,0.2851874299995091,0.31211789455330885,0.2969402264165363,0.3020087877377676,0.330093318840437,0.3480512795545013,0.3439421622618103,0.3000427962172437,0.2636858478257992,0.27450557784111285,0.30200975907816063,0.3562483870693415,0.43218030371584726,0.5145107177258122,0.5996672868510947,0.6834427300012421,0.7706076951333883,0.8544906492848207,0.932571647643207,0.9303908991999851,0.8502965792488003,0.7642749836819335,0.6794230479653697,0.5908043299496314,0.5019968266254061,0.41449093739677745,0.33083207731813047,0.26675515149783446,0.2977199768172406,0.3195855622214515,0.2960698462242327,0.3059221954747299,0.3323430609558823,0.3480271775582281,0.3257112752855559,0.27743682292471694,0.25986428059615496,0.2798262548324332,0.311723396309722,0.37303640134829463,0.4513067152040592,0.534579093076217,0.6185818555185186,0.7047538154447001,0.7890144355176648,0.8753520681570456,0.9546526351451327,0.9627597916508989,0.8850670481702262,0.8007727211694541,0.7123014091235967,0.6235627810687806,0.5377838186817289,0.45263101759086244,0.36396086289018814,0.27671011198665585,0.2420035040207239,0.30029859669390435,0.33113546186892495,0.3089076135895831,0.3079432988052445,0.33611965915294595,0.35164941733110855,0.34329529711102846,0.2995545370417171,0.26410866418641954,0.2742908950668098,0.2997863763348504,0.3527364765627935,0.42743989038877295,0.5100907197946621,0.5960191871529618,0.6787390903291958,0.7551636245331211,0.837962843314814,0.9232639789176728,1.0,0.9990799181527737,0.9181992199750323,0.8334708820447999,0.7499459285886488,0.6709589384623832,0.5835285814569545,0.4955454140415875,0.4117009238859767,0.3260955531936368,0.29323052222023727,0.3216593218855036,0.30848228502774233,0.3007610358338969,0.3246388113785167,0.34280333939880003,0.3346717211383389,0.2872148371769,0.2527067793247243,0.2698866945058679,0.2977274278896881,0.3411323266237275,0.40454646467873234,0.4813249420363711,0.5655245160327452,0.6511772005797342,0.7363869985356709,0.821861017233294,0.9067602430330802,0.9868027095015482,0.9983553416388798,0.9236988751537346,0.8353730387304178,0.7468361141020806,0.6623196513136796,0.5758133917973179,0.48703215123047416,0.398279130492566,0.31335330006671647,0.27319009815997675,0.3139444118485869,0.3231875022953007,0.2938320791981758,0.3037446785008219,0.3272008851260778
0,1,2,3,4,5,6,7,8,9,10,11,12,13,14,15,16,17,18,19,20,21,22,23,24,25,26,27,28,29,30,31,32,33,34,35,36,37,38,39,40,41,42,43,44,45,46,47,48,49,50,51,52,53,54,55,56,57,58,59,60,61,62,63,64,65,66,67,68,69,70,71,72,73,74,75,76,77,78,79,80,81,82,83,84,85,86,87,88,89,90,91,92,93,94,95,96,97,98,99,100,101,102,103,104,105,106,107,108,109,110,111,112,113,114,115,116,117,118,119,120,121,122,123,124,125,126,127,128,129,130,131,132,133,134,135,136,137,138,139,140,141,142,143,144,145,146,147,148,149,150,151,152,153,154,155,156,157,158,159,160,161,162,163,164,165,166,167,168,169,170,171,172,173,174,175,176,177,178,179,180,181,182,183,184,185,186,187,188,189,190,191,192,193,194,195,196,197,198,199,200,201,202,203,204,205,206,207,208,209,210,211,212,213,214,215,216,217,218,219,220,221,222,223,224,225,226,227,228,229,230,231,232,233,234,235,236,237,238,239,240,241,242,243,244,245,246,247,248,249,250,251,252,253,254
0.30201622963938746,0.2767856388729867,0.24517369384452226,0.21664292669459428,0.1898874362380566,0.15332970209254781,0.17303235280272156,0.23652203111261605,0.2902603487491947,0.27958802787819115,0.2089929140311345,0.12592256873036,0.04670379933164781,0.032771959135454054,0.10658584594497567,0.19250433852274818,0.2677286851893027,0.3520108572250723,0.44075130906835935,0.5295662424464306,0.6164405503694669,0.645894166478841,0.5719714953653575,0.48804411078069243,0.40672458882525364,0.3345738009491205,0.2858208139052637,0.25677109533522346,0.2307994517663089,0.23544527697462903,0.2824213491829507,0.3192970021293674,0.30940618198775993,0.29126018505050844,0.26967599783917573,0.29058749348102875,0.28048159391779215,0.20947543555835269,0.12716444734319576,0.051739932930373045,0.05501982246324222,0.1328195631421577,0.21897843017426488,0.30774478320656173,0.3965602042330908,0.4848572460548396,0.5620729466784641,0.5760290880491449,0.4990094531481265,0.4172780913642641,0.3435074322732593,0.28916829316725134,0.2610584808386248,0.2379774484259386,0.2431938640692456,0.28929772899503703,0.3272606587846175,0.3226701504383599,0.30388657969701705,0.2764352376975491,0.2943803933434862,0.29486880782182456,0.2287847871346561,0.14617939723470375,0.06460533924412704,0.02493301938395287,0.08597069840142058,0.16954279829340546,0.25780064285136317,0.3466152617849484,0.4354310480338873,0.5242468342828267,0.6128405676051686,0.6778372110334231,0.6320866178906498,0.5499493071179512,0.47362327699611295,0.39609278530877534,0.32650982709348686,0.27862320835930376,0.2529158620475961,0.23473612179536285,0.253368839131242,0.3015361046416277,0.3260992947091551,0.31017688887881734,0.27961892355664586,0.26622723852153196,0.29588943486194663,0.2727034166178227,0.19703525508480413,0.11350112997553963,0.03333606270724665,0.008069547873213012,0.0759758965635613,0.1639908208221511,0.2528049447689532,0.34162073101789214,0.43043651726683263,0.5192508399544237,0.6057431191491699,0.6322786299819522,0.5608640562106261,0.4763976730982805,0.3952315432603485,0.3246941388603525,0.27910723694301887,0.25312157106018673,0.23796283495422366,0.26441393662002544,0.31256820579527045,0.32590205755624246,0.30956551004706656,0.2770270709992503,0.26760888532330085,0.2900470924036388,0.25379765022865086,0.17447636012881362,0.09066036798072075,0.011441616995484405,0.0,0.07832230829822395,0.16704272692356736,0.2534071752054544,0.3380377602291186,0.4266093219612689,0.5154249728736263,0.6041266070712833,0.6766269907696031,0.6459539125990109,0.5592880082169075,0.4705542753301949,0.3848260173437098,0.3035754674629977,0.2851874299995091,0.31211789455330885,0.2969402264165363,0.3020087877377676,0.330093318840437,0.3480512795545013,0.3439421622618103,0.3000427962172437,0.2636858478257992,0.27450557784111285,0.30200975907816063,0.3562483870693415,0.43218030371584726,0.5145107177258122,0.5996672868510947,0.6834427300012421,0.7706076951333883,0.8544906492848207,0.932571647643207,0.9303908991999851,0.8502965792488003,0.7642749836819335,0.6794230479653697,0.5908043299496314,0.5019968266254061,0.41449093739677745,0.33083207731813047,0.26675515149783446,0.2977199768172406,0.3195855622214515,0.2960698462242327,0.3059221954747299,0.3323430609558823,0.3480271775582281,0.3257112752855559,0.27743682292471694,0.25986428059615496,0.2798262548324332,0.311723396309722,0.37303640134829463,0.4513067152040592,0.534579093076217,0.6185818555185186,0.7047538154447001,0.7890144355176648,0.8753520681570456,0.9546526351451327,0.9627597916508989,0.8850670481702262,0.8007727211694541,0.7123014091235967,0.6235627810687806,0.5377838186817289,0.45263101759086244,0.36396086289018814,0.27671011198665585,0.2420035040207239,0.30029859669390435,0.33113546186892495,0.3089076135895831,0.3079432988052445,0.33611965915294595,0.35164941733110855,0.34329529711102846,0.2995545370417171,0.26410866418641954,0.2742908950668098,0.2997863763348504,0.3527364765627935,0.42743989038877295,0.5100907197946621,0.5960191871529618,0.6787390903291958,0.7551636245331211,0.837962843314814,0.9232639789176728,1.0,0.9990799181527737,0.9181992199750323,0.8334708820447999,0.7499459285886488,0.6709589384623832,0.5835285814569545,0.4955454140415875,0.4117009238859767,0.3260955531936368,0.29323052222023727,0.3216593218855036,0.30848228502774233,0.3007610358338969,0.3246388113785167,0.34280333939880003,0.3346717211383389,0.2872148371769,0.2527067793247243,0.2698866945058679,0.2977274278896881,0.3411323266237275,0.40454646467873234,0.4813249420363711,0.5655245160327452,0.6511772005797342,0.7363869985356709,0.821861017233294,0.9067602430330802,0.9868027095015482,0.9983553416388798,0.9236988751537346,0.8353730387304178,0.7468361141020806,0.6623196513136796,0.5758133917973179,0.48703215123047416,0.398279130492566,0.31335330006671647,0.27319009815997675,0.3139444118485869,0.3231875022953007,0.2938320791981758,0.3037446785008219,0.3272008851260778
0,1,2,3,4,5,6,7,8,9,10,11,12,13,14,15,16,17,18,19,20,21,22,23,24,25,26,27,28,29,30,31,32,33,34,35,36,37,38,39,40,41,42,43,44,45,46,47,48,49,50,51,52,53,54,55,56,57,58,59,60,61,62,63,64,65,66,67,68,69,70,71,72,73,74,75,76,77,78,79,80,81,82,83,84,85,86,87,88,89,90,91,92,93,94,95,96,97,98,99,100,101,102,103,104,105,106,107,108,109,110,111,112,113,114,115,116,117,118,119,120,121,122,123,124,125,126,127,128,129,130,131,132,133,134,135,136,137,138,139,140,141,142,143,144,145,146,147,148,149,150,151,152,153,154,155,156,157,158,159,160,161,162,163,164,165,166,167,168,169,170,171,172,173,174,175,176,177,178,179,180,181,182,183,184,185,186,187,188,189,190,191,192,193,194,195,196,197,198,199,200,201,202,203,204,205,206,207,208,209,210,211,212,213,214,215,216,217,218,219,220,221,222,223,224,225,226,227,228,229,230,231,232,233,234,235,236,237,238,239,240,241,242,243,244,245,246,247,248,249,250,251,252,253,254
0.5407605424150101,0.5554790914883452,0.5710283250229782,0.5814876125298152,0.5761157523142766,0.5774646171830204,0.5981819480189514,0.6268542883837116,0.6635403417120747,0.7304119157334308,0.7688169427250882,0.6962575539003477,0.6016266504635979,0.5076080072710576,0.43223619635600063,0.3415548335334051,0.24673782937465982,0.15504237888413175,0.10124181307061364,0.16178846698373062,0.25890052085098136,0.3492597503492736,0.44548058086148035,0.47419470812036457,0.4529582646526047,0.4451117902228561,0.42348479389385285,0.41262370155553163,0.410560345764875,0.45005745281813936,0.5087801310538531,0.5817328247789171,0.6535955980610011,0.7082421427679739,0.690201894487853,0.6293127290724112,0.5865812719386383,0.5539406874472881,0.5156323081759571,0.4833262928713935,0.4713238853784312,0.4712886657931603,0.47911214951441417,0.4984995617014307,0.5382228200450865,0.5750552250573058,0.5419921435845503,0.5295891933076453,0.5870967662100435,0.6676645570857016,0.6710083001313178,0.5805461232014661,0.4830744993989746,0.39204034054888415,0.2917678598989253,0.19591808799854538,0.11343918021841759,0.11820333577703335,0.20714053760799866,0.28789547851858077,0.289321084468406,0.26728497505674187,0.24295097141885225,0.22209251892562265,0.23233522307159205,0.2630825456554471,0.3176668172997126,0.38404579693455454,0.45298224691010414,0.5316633764638967,0.6149253006607858,0.6692496316246708,0.636682430006897,0.5713286392332992,0.5228735448852742,0.5006766566947387,0.4846596238528249,0.46288295436498417,0.4610222474547674,0.46430109891908145,0.4733898599619797,0.4820129990641393,0.47568418948951297,0.4951206313099281,0.5158940329062969,0.5281860923276056,0.537451812725861,0.5499296850308439,0.5640620762247048,0.5648796724840712,0.5412296476928133,0.5445281619686837,0.5679806935105531,0.5994477272456671,0.6295259626700018,0.6813182014157821,0.649607566913186,0.5581349495653003,0.4582501791021032,0.36758656429504755,0.2694738712024256,0.16889141624994708,0.07737921745622267,0.0,0.022643409751506027,0.11685875994408756,0.21092172532317455,0.28994445335603625,0.26685976603793304,0.21997399160654463,0.23358262829636378,0.26475463530062293,0.2861372185195419,0.30796337992095313,0.3496909062821858,0.4094270019834412,0.47535554966592986,0.5393774620621203,0.6050331310851871,0.6442637416587862,0.6100443973027543,0.5651606445266204,0.5399748758045735,0.5280244645107193,0.5170259922326539,0.5185553720015104,0.5407826366920878,0.5810264745796647,0.5964889839744976,0.6239533262109755,0.6440486038520314,0.6162140244529779,0.5743876798826244,0.5635315639647003,0.5656102811280068,0.5786503803403875,0.6012192281044644,0.649095680352705,0.6940381313057704,0.6895434599152102,0.6383841508081829,0.5743180217781656,0.5081253963066337,0.43683072678314283,0.3808938628694871,0.34528594345170416,0.32702430955485684,0.29813462777951405,0.27267664174030526,0.30748293217577793,0.3878865419280151,0.4798647818641746,0.5031429093483377,0.47819842135159063,0.5579879763408331,0.6564834238222941,0.7468837283700249,0.8428340218846662,0.9299674183381417,0.964933719283869,0.8962125114438002,0.8071976348796179,0.7201893544698994,0.6590886747429698,0.6275367856930842,0.60317861012752,0.5907783779600628,0.6020560071680292,0.610514468325001,0.6046366555082383,0.5897303291206015,0.5861287516161304,0.5831591959020253,0.5643115765717674,0.5443286226294279,0.526231471573867,0.53147976631775,0.522439050695289,0.5154429843541937,0.5110232526124159,0.5119916637556072,0.5261185899966707,0.5416724146368923,0.5727178186257562,0.6283397098766927,0.6951481662891739,0.7277268661690484,0.6940267303025995,0.6219403587575776,0.5457634601536256,0.46902759493400015,0.4006127395848955,0.3354650055049413,0.2840129714172337,0.27342568871260187,0.289171791732574,0.30796649795430686,0.352543383726003,0.4345280410123131,0.514768865857252,0.5506420984589824,0.6238762197086392,0.7198152023045565,0.8106110730963161,0.8984334370848315,0.940898682214508,0.8819609300621909,0.7904455527832905,0.7003943406204345,0.6177815394455488,0.6094431429918956,0.6391435088617292,0.6144713133331987,0.5629572128577498,0.5332914018037209,0.5149149083197082,0.5152017999173266,0.515153892548865,0.539547345051431,0.57549050267206,0.6130561228454237,0.647088198257636,0.7037226142505288,0.7583766601295523,0.7644754184113458,0.7139520056303403,0.6420696967671808,0.5739945574314043,0.5091466257734438,0.4601956717818141,0.45498256729993414,0.4796021974531055,0.4914786164067084,0.5142613270127712,0.5827420313831364,0.6357231287347613,0.5929568734222432,0.5804420439650018,0.6728992885070142,0.766717947554542,0.860194982073345,0.9495230613853873,0.9999999999999998,0.9482861657192501,0.8590508915742714,0.7706290992047629,0.6965111394191863,0.6649621209555352,0.6338015951741476,0.6289084283433961,0.6267036809174991,0.6222154896760628,0.6265526968771764,0.6103588910841176,0.5899170074840263
0,1,2,3,4,5,6,7,8,9,10,11,12,13,14,15,16,17,18,19,20,21,22,23,24,25,26,27,28,29,30,31,32,33,34,35,36,37,38,39,40,41,42,43,44,45,46,47,48,49,50,51,52,53,54,55,56,57,58,59,60,61,62,63,64,65,66,67,68,69,70,71,72,73,74,75,76,77,78,79,80,81,82,83,84,85,86,87,88,89,90,91,92,93,94,95,96,97,98,99,100,101,102,103,104,105,106,107,108,109,110,111,112,113,114,115,116,117,118,119,120,121,122,123,124,125,126,127,128,129,130,131,132,133,134,135,136,137,138,139,140,141,142,143,144,145,146,147,148,149,150,151,152,153,154,155,156,157,158,159,160,161,162,163,164,165,166,167,168,169,170,171,172,173,174,175,176,177,178,179,180,181,182,183,184,185,186,187,188,189,190,191,192,193,194,195,196,197,198,199,200,201,202,203,204,205,206,207,208,209,210,211,212,213,214,215,216,217,218,219,220,221,222,223,224,225,226,227,228,229,230,231,232,233,234,235,236,237,238,239,240,241,242,243,244,245,246,247,248,249,250,251,252,253,254
0.6203451775177018,0.6010002728318167,0.5760830811471473,0.5837248240611133,0.594954025394199,0.5985212446623029,0.6195931610859,0.6544829743199618,0.688479688785844,0.6711950887986395,0.6188902546449975,0.5695281121048676,0.5297747421494234,0.5001816532165126,0.4901354836755958,0.5063509372303376,0.5112590441090259,0.5299182914884886,0.555181908839889,0.56499469868623,0.5689688863309965,0.5753181978349748,0.5738959440041196,0.5815034754469144,0.5968206407721033,0.6070738136077165,0.6077569309452544,0.6101898872606546,0.6208047347482382,0.633903887412584,0.6493042860371676,0.642350316695502,0.5938004504163428,0.5345181381459474,0.46945567207163763,0.39978542058551225,0.32276671445020244,0.25286948871425063,0.19757706176005807,0.21652481091057463,0.28810905707772316,0.3570465037791428,0.4332360621671336,0.5110565737647315,0.5888052238328285,0.6616313790682962,0.7329037325272574,0.8014133871718321,0.7850472009201983,0.7292814255315929,0.7008472104130559,0.6751076319076446,0.6612213495667487,0.6678075240668528,0.6833160414983412,0.7048944478118764,0.7392622711181791,0.7764846135589631,0.8115414064350275,0.8016795700080475,0.7520772933788193,0.6959638579105447,0.6406099928430744,0.58153007253453,0.5274942611708853,0.4863083565272621,0.45845570770828536,0.4539079746924266,0.4424572636815687,0.41801805240540313,0.37830160494314735,0.3289233270247294,0.28744921438993254,0.246316468931852,0.21820866890290014,0.19286189146572008,0.19697474292757877,0.21376460318324697,0.24205930603485792,0.26793322988060164,0.29316112302513453,0.3231077984679962,0.3597814270785398,0.39228917896708704,0.42071817234026443,0.4497748604404499,0.47934850006867324,0.4828281526735192,0.43332619106032966,0.36834526748313823,0.2940676111829572,0.2163321958672879,0.1431872942113106,0.07262927773230876,0.007836618523825889,0.0,0.061094571500573513,0.1382976811249732,0.2098830374726952,0.2818280309476726,0.3457900304699846,0.4145048018923456,0.4921847389644507,0.56798284993908,0.6365582016915536,0.6797335042517303,0.6373905257024197,0.6123711016306737,0.5799282534229921,0.5613986476342867,0.5619155909029852,0.5754330522257449,0.595170213674167,0.6227746365247211,0.6604282514271804,0.6924715398885937,0.6742096093635421,0.6554503841139963,0.6382002475405686,0.6388154062377531,0.6433839648888562,0.6508250648919058,0.6608224945688534,0.6664560857765891,0.6667846201499583,0.6756366885868084,0.6823914624238001,0.6869558014721062,0.6788147890790586,0.672002001423742,0.6803711925409832,0.7133687376277233,0.7172384439990824,0.7184260496524502,0.7279489183055019,0.7236454346682311,0.7168543959006399,0.7109556217969928,0.7084244821887435,0.6928774535172773,0.6838750610796533,0.6815454572898036,0.6794987572746227,0.6948760971175378,0.717630418152019,0.7374706704379674,0.7181801623515969,0.6798904767651788,0.6458018035376709,0.6211950542664852,0.6048220617397002,0.5996888035140446,0.6100227244506864,0.6450764307435293,0.6712258307986296,0.7229602328433851,0.7909967153856843,0.8445381203016158,0.827667965948863,0.7608126486905937,0.6854461299435735,0.6162905737821138,0.5393554457112533,0.46153259029986526,0.3843234097212058,0.3384890645836005,0.387151281747115,0.45238872445279465,0.5155713921364127,0.5342048869513454,0.5140531649674294,0.4827221552986798,0.45454786511705936,0.4253689109626324,0.39701466376964567,0.36008238405322546,0.32847284736684657,0.3017128191296692,0.275858002410855,0.2499311885789548,0.232712250663895,0.24402931894535596,0.27331309257379965,0.31199695805834415,0.35403721922833875,0.39813528846648283,0.4434117930877579,0.4733872983917238,0.4876239201815862,0.4920162332053899,0.49411774517996543,0.5277346515650896,0.5721962840830155,0.6260193556620535,0.6850449846856876,0.7464353825945271,0.7987511423492819,0.8475501153818681,0.8634821840046212,0.8359576536907309,0.8010406348075958,0.7635793451408892,0.7320554364710392,0.7114097909991184,0.7045755833375322,0.7126124352222876,0.7385980874466322,0.7713874273418067,0.8313501072292033,0.9050030794671522,0.9702053689153454,1.0,0.9549855866020764,0.8856509508538681,0.8082273692047495,0.7339007662337691,0.6639106614930395,0.5865238953962295,0.5120722304954992,0.5020745942879503,0.5645036855397945,0.630377048417897,0.6772794424103483,0.6916723386510499,0.6834428013607519,0.6671513536822822,0.6620980110818961,0.6491792522301862,0.6478253017021935,0.6446961577206727,0.6277777521566854,0.6152161386227111,0.6124729659489794,0.6113379741695666,0.6055677686340735,0.6011727158966613,0.5774708026739994,0.5578870729339169,0.5492915298871281,0.539209266709973,0.5452496219227758,0.5864832961521338,0.6309274411516508,0.6789129302155863,0.7199608033995983,0.7240738845404602,0.6919036183203877,0.6554537656077843,0.6329215217385191,0.6241681837651163,0.6192495787842964,0.6130465081498733,0.6429037016741046,0.6706408425256285,0.7052439108617548
0,1,2,3,4,5,6,7,8,9,10,11,12,13,14,15,16,17,18,19,20,21,22,23,24,25,26,27,28,29,30,31,32,33,34,35,36,37,38,39,40,41,42,43,44,45,46,47,48,49,50,51,52,53,54,55,56,57,58,59,60,61,62,63,64,65,66,67,68,69,70,71,72,73,74,75,76,77,78,79,80,81,82,83,84,85,86,87,88,89,90,91,92,93,94,95,96,97,98,99,100,101,102,103,104,105,106,107,108,109,110,111,112,113,114,115,116,117,118,119,120,121,122,123,124,125,126,127,128,129,130,131,132,133,134,135,136,137,138,139,140,141,142,143,144,145,146,147,148,149,150,151,152,153,154,155,156,157,158,159,160,161,162,163,164,165,166,167,168,169,170,171,172,173,174,175,176,177,178,179,180,181,182,183,184,185,186,187,188,189,190,191,192,193,194,195,196,197,198,199,200,201,202,203,204,205,206,207,208,209,210,211,212,213,214,215,216,217,218,219,220,221,222,223,224,225,226,227,228,229,230,231,232,233,234,235,236,237,238,239,240,241,242,243,244,245,246,247,248,249,250,251,252,253,254
0.6203451775177018,0.6010002728318167,0.5760830811471473,0.5837248240611133,0.594954025394199,0.5985212446623029,0.6195931610859,0.6544829743199618,0.688479688785844,0.6711950887986395,0.6188902546449975,0.5695281121048676,0.5297747421494234,0.5001816532165126,0.4901354836755958,0.5063509372303376,0.5112590441090259,0.5299182914884886,0.555181908839889,0.56499469868623,0.5689688863309965,0.5753181978349748,0.5738959440041196,0.5815034754469144,0.5968206407721033,0.6070738136077165,0.6077569309452544,0.6101898872606546,0.6208047347482382,0.633903887412584,0.6493042860371676,0.642350316695502,0.5938004504163428,0.5345181381459474,0.46945567207163763,0.39978542058551225,0.32276671445020244,0.25286948871425063,0.19757706176005807,0.21652481091057463,0.28810905707772316,0.3570465037791428,0.4332360621671336,0.5110565737647315,0.5888052238328285,0.6616313790682962,0.7329037325272574,0.8014133871718321,0.7850472009201983,0.7292814255315929,0.7008472104130559,0.6751076319076446,0.6612213495667487,0.6678075240668528,0.6833160414983412,0.7048944478118764,0.7392622711181791,0.7764846135589631,0.8115414064350275,0.8016795700080475,0.7520772933788193,0.6959638579105447,0.6406099928430744,0.58153007253453,0.5274942611708853,0.4863083565272621,0.45845570770828536,0.4539079746924266,0.4424572636815687,0.41801805240540313,0.37830160494314735,0.3289233270247294,0.28744921438993254,0.246316468931852,0.21820866890290014,0.19286189146572008,0.19697474292757877,0.21376460318324697,0.24205930603485792,0.26793322988060164,0.29316112302513453,0.3231077984679962,0.3597814270785398,0.39228917896708704,0.42071817234026443,0.4497748604404499,0.47934850006867324,0.4828281526735192,0.43332619106032966,0.36834526748313823,0.2940676111829572,0.2163321958672879,0.1431872942113106,0.07262927773230876,0.007836618523825889,0.0,0.061094571500573513,0.1382976811249732,0.2098830374726952,0.2818280309476726,0.3457900304699846,0.4145048018923456,0.4921847389644507,0.56798284993908,0.6365582016915536,0.6797335042517303,0.6373905257024197,0.6123711016306737,0.5799282534229921,0.5613986476342867,0.5619155909029852,0.5754330522257449,0.595170213674167,0.6227746365247211,0.6604282514271804,0.6924715398885937,0.6742096093635421,0.6554503841139963,0.6382002475405686,0.6388154062377531,0.6433839648888562,0.6508250648919058,0.6608224945688534,0.6664560857765891,0.6667846201499583,0.6756366885868084,0.6823914624238001,0.6869558014721062,0.6788147890790586,0.672002001423742,0.6803711925409832,0.7133687376277233,0.7172384439990824,0.7184260496524502,0.7279489183055019,0.7236454346682311,0.7168543959006399,0.7109556217969928,0.7084244821887435,0.6928774535172773,0.6838750610796533,0.6815454572898036,0.6794987572746227,0.6948760971175378,0.717630418152019,0.7374706704379674,0.7181801623515969,0.6798904767651788,0.6458018035376709,0.6211950542664852,0.6048220617397002,0.5996888035140446,0.6100227244506864,0.6450764307435293,0.6712258307986296,0.7229602328433851,0.7909967153856843,0.8445381203016158,0.827667965948863,0.7608126486905937,0.6854461299435735,0.6162905737821138,0.5393554457112533,0.46153259029986526,0.3843234097212058,0.3384890645836005,0.387151281747115,0.45238872445279465,0.5155713921364127,0.5342048869513454,0.5140531649674294,0.4827221552986798,0.45454786511705936,0.4253689109626324,0.39701466376964567,0.36008238405322546,0.32847284736684657,0.3017128191296692,0.275858002410855,0.2499311885789548,0.232712250663895,0.24402931894535596,0.27331309257379965,0.31199695805834415,0.35403721922833875,0.39813528846648283,0.4434117930877579,0.4733872983917238,0.4876239201815862,0.4920162332053899,0.49411774517996543,0.5277346515650896,0.5721962840830155,0.6260193556620535,0.6850449846856876,0.7464353825945271,0.7987511423492819,0.8475501153818681,0.8634821840046212,0.8359576536907309,0.8010406348075958,0.7635793451408892,0.7320554364710392,0.7114097909991184,0.7045755833375322,0.7126124352222876,0.7385980874466322,0.7713874273418067,0.8313501072292033,0.9050030794671522,0.9702053689153454,1.0,0.9549855866020764,0.8856509508538681,0.8082273692047495,0.7339007662337691,0.6639106614930395,0.5865238953962295,0.5120722304954992,0.5020745942879503,0.5645036855397945,0.630377048417897,0.6772794424103483,0.6916723386510499,0.6834428013607519,0.6671513536822822,0.6620980110818961,0.6491792522301862,0.6478253017021935,0.6446961577206727,0.6277777521566854,0.6152161386227111,0.6124729659489794,0.6113379741695666,0.6055677686340735,0.6011727158966613,0.5774708026739994,0.5578870729339169,0.5492915298871281,0.539209266709973,0.5452496219227758,0.5864832961521338,0.6309274411516508,0.6789129302155863,0.7199608033995983,0.7240738845404602,0.6919036183203877,0.6554537656077843,0.6329215217385191,0.6241681837651163,0.6192495787842964,0.6130465081498733,0.6429037016741046,0.6706408425256285,0.7052439108617548
0,1,2,3,4,5,6,7,8,9,10,11,12,13,14,15,16,17,18,19,20,21,22,23,24,25,26,27,28,29,30,31,32,33,34,35,36,37,38,39,40,41,42,43,44,45,46,47,48,49,50,51,52,53,54,55,56,57,58,59,60,61,62,63,64,65,66,67,68,69,70,71,72,73,74,75,76,77,78,79,80,81,82,83,84,85,86,87,88,89,90,91,92,93,94,95,96,97,98,99,100,101,102,103,104,105,106,107,108,109,110,111,112,113,114,115,116,117,118,119,120,121,122,123,124,125,126,127,128,129,130,131,132,133,134,135,136,137,138,139,140,141,142,143,144,145,146,147,148,149,150,151,152,153,154,155,156,157,158,159,160,161,162,163,164,165,166,167,168,169,170,171,172,173,174,175,176,177,178,179,180,181,182,183,184,185,186,187,188,189,190,191,192,193,194,195,196,197,198,199,200,201,202,203,204,205,206,207,208,209,210,211,212,213,214,215,216,217,218,219,220,221,222,223,224,225,226,227,228,229,230,231,232,233,234,235,236,237,238,239,240,241,242,243,244,245,246,247,248,249,250,251,252,253,254
0.6203451775177018,0.6010002728318167,0.5760830811471473,0.5837248240611133,0.594954025394199,0.5985212446623029,0.6195931610859,0.6544829743199618,0.688479688785844,0.6711950887986395,0.6188902546449975,0.5695281121048676,0.5297747421494234,0.5001816532165126,0.4901354836755958,0.5063509372303376,0.5112590441090259,0.5299182914884886,0.555181908839889,0.56499469868623,0.5689688863309965,0.5753181978349748,0.5738959440041196,0.5815034754469144,0.5968206407721033,0.6070738136077165,0.6077569309452544,0.6101898872606546,0.6208047347482382,0.633903887412584,0.6493042860371676,0.642350316695502,0.5938004504163428,0.5345181381459474,0.46945567207163763,0.39978542058551225,0.32276671445020244,0.25286948871425063,0.19757706176005807,0.21652481091057463,0.28810905707772316,0.3570465037791428,0.4332360621671336,0.5110565737647315,0.5888052238328285,0.6616313790682962,0.7329037325272574,0.8014133871718321,0.7850472009201983,0.7292814255315929,0.7008472104130559,0.6751076319076446,0.6612213495667487,0.6678075240668528,0.6833160414983412,0.7048944478118764,0.7392622711181791,0.7764846135589631,0.8115414064350275,0.8016795700080475,0.7520772933788193,0.6959638579105447,0.6406099928430744,0.58153007253453,0.5274942611708853,0.4863083565272621,0.45845570770828536,0.4539079746924266,0.4424572636815687,0.41801805240540313,0.37830160494314735,0.3289233270247294,0.28744921438993254,0.246316468931852,0.21820866890290014,0.19286189146572008,0.19697474292757877,0.21376460318324697,0.24205930603485792,0.26793322988060164,0.29316112302513453,0.3231077984679962,0.3597814270785398,0.39228917896708704,0.42071817234026443,0.4497748604404499,0.47934850006867324,0.4828281526735192,0.43332619106032966,0.36834526748313823,0.2940676111829572,0.2163321958672879,0.1431872942113106,0.07262927773230876,0.007836618523825889,0.0,0.061094571500573513,0.1382976811249732,0.2098830374726952,0.2818280309476726,0.3457900304699846,0.4145048018923456,0.4921847389644507,0.56798284993908,0.6365582016915536,0.6797335042517303,0.6373905257024197,0.6123711016306737,0.5799282534229921,0.5613986476342867,0.5619155909029852,0.5754330522257449,0.595170213674167,0.6227746365247211,0.6604282514271804,0.6924715398885937,0.6742096093635421,0.6554503841139963,0.6382002475405686,0.6388154062377531,0.6433839648888562,0.6508250648919058,0.6608224945688534,0.6664560857765891,0.6667846201499583,0.6756366885868084,0.6823914624238001,0.6869558014721062,0.6788147890790586,0.672002001423742,0.6803711925409832,0.7133687376277233,0.7172384439990824,0.7184260496524502,0.7279489183055019,0.7236454346682311,0.7168543959006399,0.7109556217969928,0.7084244821887435,0.6928774535172773,0.6838750610796533,0.6815454572898036,0.6794987572746227,0.6948760971175378,0.717630418152019,0.7374706704379674,0.7181801623515969,0.6798904767651788,0.6458018035376709,0.6211950542664852,0.6048220617397002,0.5996888035140446,0.6100227244506864,0.6450764307435293,0.6712258307986296,0.7229602328433851,0.7909967153856843,0.8445381203016158,0.827667965948863,0.7608126486905937,0.6854461299435735,0.6162905737821138,0.5393554457112533,0.46153259029986526,0.3843234097212058,0.3384890645836005,0.387151281747115,0.45238872445279465,0.5155713921364127,0.5342048869513454,0.5140531649674294,0.4827221552986798,0.45454786511705936,0.4253689109626324,0.39701466376964567,0.36008238405322546,0.32847284736684657,0.3017128191296692,0.275858002410855,0.2499311885789548,0.232712250663895,0.24402931894535596,0.27331309257379965,0.31199695805834415,0.35403721922833875,0.39813528846648283,0.4434117930877579,0.4733872983917238,0.4876239201815862,0.4920162332053899,0.49411774517996543,0.5277346515650896,0.5721962840830155,0.6260193556620535,0.6850449846856876,0.7464353825945271,0.7987511423492819,0.8475501153818681,0.8634821840046212,0.8359576536907309,0.8010406348075958,0.7635793451408892,0.7320554364710392,0.7114097909991184,0.7045755833375322,0.7126124352222876,0.7385980874466322,0.7713874273418067,0.8313501072292033,0.9050030794671522,0.9702053689153454,1.0,0.9549855866020764,0.8856509508538681,0.8082273692047495,0.7339007662337691,0.6639106614930395,0.5865238953962295,0.5120722304954992,0.5020745942879503,0.5645036855397945,0.630377048417897,0.6772794424103483,0.6916723386510499,0.6834428013607519,0.6671513536822822,0.6620980110818961,0.6491792522301862,0.6478253017021935,0.6446961577206727,0.6277777521566854,0.6152161386227111,0.6124729659489794,0.6113379741695666,0.6055677686340735,0.6011727158966613,0.5774708026739994,0.5578870729339169,0.5492915298871281,0.539209266709973,0.5452496219227758,0.5864832961521338,0.6309274411516508,0.6789129302155863,0.7199608033995983,0.7240738845404602,0.6919036183203877,0.6554537656077843,0.6329215217385191,0.6241681837651163,0.6192495787842964,0.6130465081498733,0.6429037016741046,0.6706408425256285,0.7052439108617548
0,1,2,3,4,5,6,7,8,9,10,11,12,13,14,15,16,17,18,19,20,21,22,23,24,25,26,27,28,29,30,31,32,33,34,35,36,37,38,39,40,41,42,43,44,45,46,47,48,49,50,51,52,53,54,55,56,57,58,59,60,61,62,63,64,65,66,67,68,69,70,71,72,73,74,75,76,77,78,79,80,81,82,83,84,85,86,87,88,89,90,91,92,93,94,95,96,97,98,99,100,101,102,103,104,105,106,107,108,109,110,111,112,113,114,115,116,117,118,119,120,121,122,123,124,125,126,127,128,129,130,131,132,133,134,135,136,137,138,139,140,141,142,143,144,145,146,147,148,149,150,151,152,153,154,155,156,157,158,159,160,161,162,163,164,165,166,167,168,169,170,171,172,173,174,175,176,177,178,179,180,181,182,183,184,185,186,187,188,189,190,191,192,193,194,195,196,197,198,199,200,201,202,203,204,205,206,207,208,209,210,211,212,213,214,215,216,217,218,219,220,221,222,223,224,225,226,227,228,229,230,231,232,233,234,235,236,237,238,239,240,241,242,243,244,245,246,247,248,249,250,251,252,253,254
0.5308695190187708,0.578348697969486,0.6277305261896707,0.669650825389485,0.7203718800756612,0.7628410269625249,0.7781371487157388,0.7716409833110617,0.7625074005493747,0.759237757462825,0.7685726957684368,0.7607269823628434,0.7518287123897057,0.7680863365305263,0.7976518096904871,0.7964040109734559,0.7443397819964311,0.672621396059568,0.5971178710328301,0.5236334741701586,0.44572066821242873,0.3726954637352182,0.29572329241201756,0.2211361517542655,0.1461497517229432,0.07210010700205283,0.02489950383977524,0.06994441458063505,0.14798524947983493,0.2268803438120348,0.30546360443765297,0.37911778218141357,0.45530711005172464,0.5341701325978389,0.6130657583124713,0.6919613840271034,0.7706648617168902,0.8283836585535879,0.8105980126998383,0.7955129219790785,0.7747813007306791,0.7479660345793268,0.7083629951962359,0.6588273261811733,0.6151925831283959,0.5963727775053825,0.6256350079935397,0.6776172514059661,0.7270322130300354,0.7631740221401172,0.7749357682417685,0.7688730874780193,0.7574585422910011,0.7605466252937209,0.7505596767375621,0.7413786838455193,0.7649392022136344,0.7939551519724531,0.7959793252891308,0.75915931737598,0.6884894842126751,0.6130168674674533,0.5394968884341954,0.46334403115243206,0.40012440527145465,0.33732271949398174,0.2700554908970768,0.19502836389749523,0.11742479865113742,0.04538855663491115,0.0,0.04971718051283103,0.1274595598617846,0.20045795389752818,0.2776230624006045,0.3565086308340152,0.43540425654864745,0.514297051915852,0.5921729235907748,0.664995857511197,0.7421688031966728,0.7926993751136752,0.7873371433545607,0.7747531315873956,0.7526157902429659,0.7165870006746052,0.6686956179393798,0.6258165909949761,0.5990318113492444,0.6191113969627223,0.669371315698552,0.7199034693137732,0.7611157027348533,0.7778139985388227,0.7718434268543034,0.7642878232244216,0.7655001017724977,0.760018151166593,0.7458524124461218,0.7649261053352988,0.7930482286847677,0.796114286531964,0.7645197684241439,0.6951915814321902,0.6213378962367982,0.5472875817370967,0.4726347375424812,0.39776931733122745,0.3200048464167632,0.2471813299833201,0.16963037834501293,0.09520268335069149,0.02576029880326358,0.015628622802078995,0.08270218490113024,0.14905938195376223,0.21647613497012008,0.29494676414082355,0.3738422534662894,0.45273787918092345,0.5316335048955557,0.6105291306101878,0.689422183674581,0.7654150133139513,0.7938629430042506,0.7910444188300835,0.7774096647971703,0.7497812149301789,0.7082773369430498,0.6581936538228096,0.6151172051388686,0.5983307385928401,0.6295786667321598,0.6804351201184492,0.7319133849259954,0.7683262802087903,0.7899916832562067,0.7678765936447652,0.7225482333754957,0.6713510360701772,0.6325725442652129,0.6510346324964634,0.6960313538711581,0.7438688718671619,0.7811627568837748,0.8045137899931784,0.8201157448618829,0.8526022921152799,0.9186106408949194,0.9724939886503298,0.9422660685500229,0.8655852271498196,0.7893500450923309,0.7157382800846025,0.637163586773641,0.5582680957695375,0.47937395208006917,0.4029243562761292,0.3869609920378646,0.45657760233435585,0.5294700254176418,0.6052134120784277,0.6780601029494063,0.752577026128387,0.8182950518228126,0.8358964554762253,0.8271912198582833,0.8107705769492141,0.779166588557456,0.7806039925294684,0.7956906153199602,0.7860591883615352,0.7910814675294372,0.8006882565516681,0.8023897976187874,0.781258453689886,0.7402483059667039,0.6891307879989937,0.6416433226526593,0.6386099197276781,0.6797502139277792,0.7260010107084282,0.7657967076071984,0.7929265355460423,0.8098733750261445,0.8370935712670652,0.9006778012375841,0.9660828648303742,0.972857443175765,0.9026587886195502,0.8238620228087149,0.748346032087407,0.6741180265372456,0.5954069270004158,0.5165113012857833,0.43762928110112564,0.36519413703042924,0.37381212423274346,0.447706212163122,0.5206292106853986,0.5980374520156125,0.6709252460398843,0.7460357459067973,0.813408061053681,0.8363949946582993,0.8220650580314838,0.8104183166925948,0.7796181401352843,0.7737941097731774,0.7873141580756001,0.7835411683235293,0.7898521055848936,0.7985058375770756,0.800215966128511,0.7846412402540065,0.7492411330266217,0.697308705386822,0.6463382802936589,0.6302504457753794,0.6689438275490541,0.7187350360333488,0.7616925876395219,0.7927698536205899,0.8179276862885746,0.8361334097395402,0.8851277418777984,0.9554277643635368,0.9999999999999999,0.9590263061979684,0.8815568337860634,0.8026624186242209,0.7237667929095885,0.6448762364392299,0.5673041988859445,0.5066161826410737,0.5337556287475785,0.6086585474007119,0.681657398618085,0.7541002707907664,0.8217538987786813,0.8465468270859741,0.8302138205200852,0.8159728646947807,0.784424047764961,0.7803982193891844,0.7937652465408785,0.7886132107014635,0.7836775437480786,0.7908238237018338,0.8037322398485448,0.801635783697458,0.777579468121932,0.7357155925172542,0.6854492307098538,0.6355998163642368
0,1,2,3,4,5,6,7,8,9,10,11,12,13,14,15,16,17,18,19,20,21,22,23,24,25,26,27,28,29,30,31,32,33,34,35,36,37,38,39,40,41,42,43,44,45,46,47,48,49,50,51,52,53,54,55,56,57,58,59,60,61,62,63,64,65,66,67,68,69,70,71,72,73,74,75,76,77,78,79,80,81,82,83,84,85,86,87,88,89,90,91,92,93,94,95,96,97,98,99,100,101,102,103,104,105,106,107,108,109,110,111,112,113,114,115,116,117,118,119,120,121,122,123,124,125,126,127,128,129,130,131,132,133,134,135,136,137,138,139,140,141,142,143,144,145,146,147,148,149,150,151,152,153,154,155,156,157,158,159,160,161,162,163,164,165,166,167,168,169,170,171,172,173,174,175,176,177,178,179,180,181,182,183,184,185,186,187,188,189,190,191,192,193,194,195,196,197,198,199,200,201,202,203,204,205,206,207,208,209,210,211,212,213,214,215,216,217,218,219,220,221,222,223,224,225,226,227,228,229,230,231,232,233,234,235,236,237,238,239,240,241,242,243,244,245,246,247,248,249,250,251,252,253,254
0.5308695190187708,0.578348697969486,0.6277305261896707,0.669650825389485,0.7203718800756612,0.7628410269625249,0.7781371487157388,0.7716409833110617,0.7625074005493747,0.759237757462825,0.7685726957684368,0.7607269823628434,0.7518287123897057,0.7680863365305263,0.7976518096904871,0.7964040109734559,0.7443397819964311,0.672621396059568,0.5971178710328301,0.5236334741701586,0.44572066821242873,0.3726954637352182,0.29572329241201756,0.2211361517542655,0.1461497517229432,0.07210010700205283,0.02489950383977524,0.06994441458063505,0.14798524947983493,0.2268803438120348,0.30546360443765297,0.37911778218141357,0.45530711005172464,0.5341701325978389,0.6130657583124713,0.6919613840271034,0.7706648617168902,0.8283836585535879,0.8105980126998383,0.7955129219790785,0.7747813007306791,0.7479660345793268,0.7083629951962359,0.6588273261811733,0.6151925831283959,0.5963727775053825,0.6256350079935397,0.6776172514059661,0.7270322130300354,0.7631740221401172,0.7749357682417685,0.7688730874780193,0.7574585422910011,0.7605466252937209,0.7505596767375621,0.7413786838455193,0.7649392022136344,0.7939551519724531,0.7959793252891308,0.75915931737598,0.6884894842126751,0.6130168674674533,0.5394968884341954,0.46334403115243206,0.40012440527145465,0.33732271949398174,0.2700554908970768,0.19502836389749523,0.11742479865113742,0.04538855663491115,0.0,0.04971718051283103,0.1274595598617846,0.20045795389752818,0.2776230624006045,0.3565086308340152,0.43540425654864745,0.514297051915852,0.5921729235907748,0.664995857511197,0.7421688031966728,0.7926993751136752,0.7873371433545607,0.7747531315873956,0.7526157902429659,0.7165870006746052,0.6686956179393798,0.6258165909949761,0.5990318113492444,0.6191113969627223,0.669371315698552,0.7199034693137732,0.7611157027348533,0.7778139985388227,0.7718434268543034,0.7642878232244216,0.7655001017724977,0.760018151166593,0.7458524124461218,0.7649261053352988,0.7930482286847677,0.796114286531964,0.7645197684241439,0.6951915814321902,0.6213378962367982,0.5472875817370967,0.4726347375424812,0.39776931733122745,0.3200048464167632,0.2471813299833201,0.16963037834501293,0.09520268335069149,0.02576029880326358,0.015628622802078995,0.08270218490113024,0.14905938195376223,0.21647613497012008,0.29494676414082355,0.3738422534662894,0.45273787918092345,0.5316335048955557,0.6105291306101878,0.689422183674581,0.7654150133139513,0.7938629430042506,0.7910444188300835,0.7774096647971703,0.7497812149301789,0.7082773369430498,0.6581936538228096,0.6151172051388686,0.5983307385928401,0.6295786667321598,0.6804351201184492,0.7319133849259954,0.7683262802087903,0.7899916832562067,0.7678765936447652,0.7225482333754957,0.6713510360701772,0.6325725442652129,0.6510346324964634,0.6960313538711581,0.7438688718671619,0.7811627568837748,0.8045137899931784,0.8201157448618829,0.8526022921152799,0.9186106408949194,0.9724939886503298,0.9422660685500229,0.8655852271498196,0.7893500450923309,0.7157382800846025,0.637163586773641,0.5582680957695375,0.47937395208006917,0.4029243562761292,0.3869609920378646,0.45657760233435585,0.5294700254176418,0.6052134120784277,0.6780601029494063,0.752577026128387,0.8182950518228126,0.8358964554762253,0.8271912198582833,0.8107705769492141,0.779166588557456,0.7806039925294684,0.7956906153199602,0.7860591883615352,0.7910814675294372,0.8006882565516681,0.8023897976187874,0.781258453689886,0.7402483059667039,0.6891307879989937,0.6416433226526593,0.6386099197276781,0.6797502139277792,0.7260010107084282,0.7657967076071984,0.7929265355460423,0.8098733750261445,0.8370935712670652,0.9006778012375841,0.9660828648303742,0.972857443175765,0.9026587886195502,0.8238620228087149,0.748346032087407,0.6741180265372456,0.5954069270004158,0.5165113012857833,0.43762928110112564,0.36519413703042924,0.37381212423274346,0.447706212163122,0.5206292106853986,0.5980374520156125,0.6709252460398843,0.7460357459067973,0.813408061053681,0.8363949946582993,0.8220650580314838,0.8104183166925948,0.7796181401352843,0.7737941097731774,0.7873141580756001,0.7835411683235293,0.7898521055848936,0.7985058375770756,0.800215966128511,0.7846412402540065,0.7492411330266217,0.697308705386822,0.6463382802936589,0.6302504457753794,0.6689438275490541,0.7187350360333488,0.7616925876395219,0.7927698536205899,0.8179276862885746,0.8361334097395402,0.8851277418777984,0.9554277643635368,0.9999999999999999,0.9590263061979684,0.8815568337860634,0.8026624186242209,0.7237667929095885,0.6448762364392299,0.5673041988859445,0.5066161826410737,0.5337556287475785,0.6086585474007119,0.681657398618085,0.7541002707907664,0.8217538987786813,0.8465468270859741,0.8302138205200852,0.8159728646947807,0.784424047764961,0.7803982193891844,0.7937652465408785,0.7886132107014635,0.7836775437480786,0.7908238237018338,0.8037322398485448,0.801635783697458,0.777579468121932,0.7357155925172542,0.6854492307098538,0.6355998163642368
0,1,2,3,4,5,6,7,8,9,10,11,12,13,14,15,16,17,18,19,20,21,22,23,24,25,26,27,28,29,30,31,32,33,34,35,36,37,38,39,40,41,42,43,44,45,46,47,48,49,50,51,52,53,54,55,56,57,58,59,60,61,62,63,64,65,66,67,68,69,70,71,72,73,74,75,76,77,78,79,80,81,82,83,84,85,86,87,88,89,90,91,92,93,94,95,96,97,98,99,100,101,102,103,104,105,106,107,108,109,110,111,112,113,114,115,116,117,118,119,120,121,122,123,124,125,126,127,128,129,130,131,132,133,134,135,136,137,138,139,140,141,142,143,144,145,146,147,148,149,150,151,152,153,154,155,156,157,158,159,160,161,162,163,164,165,166,167,168,169,170,171,172,173,174,175,176,177,178,179,180,181,182,183,184,185,186,187,188,189,190,191,192,193,194,195,196,197,198,199,200,201,202,203,204,205,206,207,208,209,210,211,212,213,214,215,216,217,218,219,220,221,222,223,224,225,226,227,228,229,230,231,232,233,234,235,236,237,238,239,240,241,242,243,244,245,246,247,248,249,250,251,252,253,254
0.37165164501976833,0.3781989024625033,0.397833482609916,0.40624260968459447,0.3948701576627728,0.3537158947497777,0.2991182652620229,0.24206912534517022,0.18412676832142838,0.126837346382089,0.06816670304668204,0.019274214719354532,0.034618041796430354,0.08954187327808494,0.15039293851283497,0.21358310928665725,0.2756213324057438,0.33285183294757503,0.39514901507654343,0.45835917434963525,0.5215674663106397,0.5835362783583339,0.6407754984136803,0.7025433604191192,0.7351055469097069,0.6903417470136449,0.6291365431578947,0.5720690110259478,0.5148792366029501,0.45879486042496753,0.4168653936475094,0.3927906580878865,0.3814871352767558,0.380448599418605,0.37198351563045884,0.3508638052570162,0.32129994888776625,0.2889178314428754,0.262083987183667,0.2590943899470245,0.2807704671320749,0.311734812680451,0.3413570279152055,0.3596367987699004,0.3576839178250163,0.34796503376759735,0.3453091907967153,0.35554939527203644,0.37061288043314555,0.3794972985184347,0.38275688460213464,0.38061949528523564,0.3837790839612806,0.38926564303002176,0.3867862577607727,0.38416297513675535,0.3730129006418835,0.35635638108211765,0.35699313234117624,0.3779257054239896,0.3962301892615533,0.3913956906590931,0.36302095776712895,0.3073287832754118,0.2463317608229384,0.18997291769784053,0.1332154361045771,0.0732169253638485,0.018264548183309914,0.0,0.047733156089423745,0.10489002603519182,0.1664696105243032,0.22943236716199367,0.28762693191130906,0.34805517497560146,0.4112351375887874,0.47444246722952477,0.5363285174670093,0.5935782580699157,0.6556887437489681,0.6932549760764036,0.6493679568132423,0.5982731558617184,0.5474418078019422,0.49169971395425527,0.44030094607008985,0.4012548747310575,0.37655379564627356,0.36582595923689987,0.35558506056236683,0.34068069974327286,0.31852102321933573,0.28862004800409446,0.256831631948398,0.23641081012474918,0.23976262126981907,0.2663826935887209,0.3050756529953532,0.3369030442022779,0.35951448726050594,0.3654769082838717,0.3555399572351067,0.3519788178697324,0.36146332163955075,0.3726169858615286,0.3796770559798034,0.38292317069961956,0.38296818014262957,0.3822154765171183,0.37939528096731767,0.3810651391302261,0.38232002856021585,0.37146539515870514,0.36274903576152673,0.3773333004820475,0.40014171173859625,0.4116963683751932,0.4011739282656924,0.3612855458120373,0.3061851945933153,0.2495391282177114,0.19251079487960998,0.13531802116613345,0.07751993460713724,0.024390961469865857,0.027811325298968015,0.08204913806443648,0.14491746258836768,0.20244997260791997,0.2485779112325578,0.3052219801387116,0.36094247278564817,0.408227430088277,0.4305486490151186,0.4342192778908166,0.423101641926961,0.4002478330053102,0.3896753561314038,0.40286425847692653,0.40673645081870247,0.4026816511350412,0.4024459544789424,0.4061989791623696,0.40597857311405694,0.4051782458951957,0.4009320400319535,0.39443655321117543,0.3872079880474891,0.3771926221085592,0.3781678743559601,0.38759762967717537,0.38785811561014627,0.3718887113035413,0.3468685677277069,0.3107873916941465,0.27694903443208385,0.2623721774250113,0.28418500659920787,0.3150239990926943,0.34516039285461886,0.368547130946664,0.37927185274652364,0.39017437883089345,0.40094737309275097,0.4311490150058478,0.477583790730428,0.5327707140720327,0.5897955830269747,0.6469051049267301,0.7075508328076779,0.764814289432188,0.8264409832292766,0.8849868572932914,0.9438728722890691,0.9807884401410888,0.9480067350691358,0.8871048014359167,0.8298582502381587,0.7679544133704327,0.7048346722095519,0.6454602332026808,0.5863003195918289,0.5231863942753457,0.45997431270635925,0.3968597729571851,0.3376041730504763,0.27928060048562064,0.25339908748749196,0.30080042149542285,0.3561014326823627,0.4001031302658321,0.4171140920730788,0.4174163328108035,0.40306250354157835,0.38088892628646864,0.3838309841839448,0.399863325399051,0.4085459905201655,0.41041741438811996,0.4104275684104267,0.4104265462326232,0.4097380558637679,0.40376486528384803,0.3978006342784314,0.3846262407593163,0.3729475605242426,0.3724407869890197,0.3786169673075831,0.385073610030351,0.37465010356735096,0.35202411493879315,0.3221360268717067,0.2924957267488283,0.2834193435438416,0.30850352252154856,0.3412578897220514,0.3699182192161098,0.39246517958095073,0.40384596445603294,0.40799807375198516,0.41511626278819025,0.4381073150076401,0.4809403378446183,0.5341205512992321,0.5914426517159047,0.6497542882276462,0.7096460066252178,0.7728044316366364,0.8358239178585597,0.894242159980435,0.953377037308046,0.9999999999999999,0.9892763410204005,0.9333552572902725,0.8729515931321442,0.81482332406325,0.751871729022276,0.689273597289454,0.6318900630845189,0.5703034026653436,0.5070994625354129,0.4446104182447669,0.3873058432515136,0.3255323925132091,0.2633287314984488,0.24059512256058835,0.29350108556177157,0.35021998707781765,0.4003578221680332,0.42417504007023277,0.429730599811884,0.42591953877600963,0.408991477985866,0.3988199031971259
0,1,2,3,4,5,6,7,8,9,10,11,12,13,14,15,16,17,18,19,20,21,22,23,24,25,26,27,28,29,30,31,32,33,34,35,36,37,38,39,40,41,42,43,44,45,46,47,48,49,50,51,52,53,54,55,56,57,58,59,60,61,62,63,64,65,66,67,68,69,70,71,72,73,74,75,76,77,78,79,80,81,82,83,84,85,86,87,88,89,90,91,92,93,94,95,96,97,98,99,100,101,102,103,104,105,106,107,108,109,110,111,112,113,114,115,116,117,118,119,120,121,122,123,124,125,126,127,128,129,130,131,132,133,134,135,136,137,138,139,140,141,142,143,144,145,146,147,148,149,150,151,152,153,154,155,156,157,158,159,160,161,162,163,164,165,166,167,168,169,170,171,172,173,174,175,176,177,178,179,180,181,182,183,184,185,186,187,188,189,190,191,192,193,194,195,196,197,198,199,200,201,202,203,204,205,206,207,208,209,210,211,212,213,214,215,216,217,218,219,220,221,222,223,224,225,226,227,228,229,230,231,232,233,234,235,236,237,238,239,240,241,242,243,244,245,246,247,248,249,250,251,252,253,254
