0,1,2,3,4,5,6,7,8,9,10,11,12,13,14,15,16,17,18,19,20,21,22,23,24,25,26,27,28,29,30,31,32,33,34,35,36,37,38,39,40,41,42,43,44,45,46,47,48,49,50,51,52,53,54,55,56,57,58,59,60,61,62,63,64,65,66,67,68,69,70,71,72,73,74,75,76,77,78,79,80,81,82,83,84,85,86,87,88,89,90,91,92,93,94,95,96,97,98,99,100,101,102,103,104,105,106,107,108,109,110,111,112,113,114,115,116,117,118,119,120,121,122,123,124,125,126,127,128,129,130,131,132,133,134,135,136,137,138,139,140,141,142,143,144,145,146,147,148,149,150,151,152,153,154,155,156,157,158,159,160,161,162,163,164,165,166,167,168,169,170,171,172,173,174,175,176,177,178,179,180,181,182,183,184,185,186,187,188,189,190,191,192,193,194,195,196,197,198,199,200,201,202,203,204,205,206,207,208,209,210,211,212,213,214,215,216,217,218,219,220,221,222,223,224,225,226,227,228,229,230,231,232,233,234,235,236,237,238,239,240,241,242,243,244,245,246,247,248,249,250,251,252,253,254
0.7287320141429694,0.690274689079228,0.6433292638724488,0.5720292509741132,0.506978670568146,0.4437283910541918,0.38096130719689736,0.31106269264118236,0.24957240594254504,0.18147148389263457,0.09818898353708949,0.034121191497411996,0.0,0.019734486854195765,0.07762144692199735,0.14442000472871364,0.22616736008438032,0.30616703862004346,0.3718637318312972,0.4441966713735681,0.5218982349832304,0.5865109106624846,0.6622617917812352,0.7190587810084699,0.7628541705439238,0.8047185295308559,0.8316240598779663,0.8507206249531363,0.8650730721704134,0.8431745640536858,0.8397834387729244,0.8294744511520609,0.7899570452226232,0.7673792807004887,0.7311989107572918,0.7343543293571129,0.7552624495138041,0.7737865859803001,0.7838626594690696,0.7987248643604499,0.8054117565475911,0.7408715079381558,0.653267680339642,0.5607485973531965,0.47038928090370735,0.403128188211868,0.4168598083360182,0.4432174848701198,0.3646866123012682,0.27260193868501315,0.17094203699344934,0.12104662139531408,0.17085693743150365,0.27249297982027443,0.36463126725891915,0.45777967261726626,0.5642058902922997,0.6707304719852472,0.7737147410931078,0.8580501681173844,0.9480456917432205,0.9215210640897977,0.8677499486819347,0.838480468148334,0.8041079591990989,0.7740622482696029,0.7475562880300428,0.7207895709212844,0.6869929686689389,0.6401532590350074,0.5811485840317614,0.5121341821905521,0.4377651605396453,0.37905256525376974,0.3138985967732273,0.24304789837277063,0.17791797845127189,0.12437356851089687,0.08566235278795364,0.09177537642967781,0.15279722124239914,0.21752295123017706,0.2855764717434903,0.35644730061761987,0.42083997682353935,0.49843443772332297,0.5770746542008487,0.6341415137050284,0.6725334234582911,0.7128248018190018,0.757741857737698,0.7825162914144466,0.7836977262757969,0.7818426139885704,0.7598900460713551,0.754787931098643,0.7331412919662883,0.7047951449318646,0.6759052091723641,0.697026443425564,0.7037647627536456,0.7038871667519029,0.7257949507484431,0.7275678823935845,0.7217614038314899,0.6577215099196776,0.5703465982191158,0.4666045850823881,0.3825624570603301,0.30270875602604264,0.29216367026297263,0.36087979057932085,0.37478024832143664,0.292991200580925,0.2000761858961715,0.15049116807714125,0.20389112448191682,0.2993802397247016,0.40571511125966975,0.49973947931147933,0.5910072173767063,0.6973650266128475,0.8038923356692864,0.9102736165732228,0.9910885021370834,0.9407076214056103,0.8819653710697466,0.842840431978332,0.8214054266511397,0.8022847965794755,0.775963530528399,0.7487100544075256,0.7068860728632309,0.6595744644452335,0.5963000250669941,0.5369679275512587,0.4667384474094085,0.4039259940380804,0.3338840434116115,0.2736569198438348,0.21807167352444612,0.1537652223707937,0.11405596608429747,0.12612651532921904,0.1806056549926831,0.25106571476620143,0.32213793629102483,0.3930994953323115,0.46395412465589736,0.5285841246427383,0.6041416713562242,0.6617023189804829,0.7126900571324724,0.7542225545048771,0.788235756038759,0.8281594800370389,0.8486802548661432,0.8672990108713448,0.8577341818694171,0.8400440118547721,0.824508462965075,0.7912661598626727,0.7649132299707455,0.7582567253792192,0.7959875818291478,0.7863069480340501,0.8029743254543948,0.8373335747653528,0.8397938390636392,0.8281769588311576,0.7618297801328797,0.662711425265555,0.5742888851667978,0.4783406127658685,0.4054387440173137,0.3975339896341703,0.36524061781020656,0.275430817851233,0.169342994303201,0.09172748384844098,0.1202529201624154,0.21359682984943706,0.30642470162791025,0.39880464945253724,0.5052196943684875,0.6117470034249246,0.7182742373604487,0.8241716388396281,0.9117097305352715,1.0,0.9805567183240571,0.9223334429083172,0.8790970146272263,0.8586746325302723,0.8251303370267093,0.8045981081753801,0.7635444461827232,0.721323508950853,0.6873444301165641,0.6225929431570227,0.5604650720885784,0.49894684909540565,0.42910447939370844,0.36633574620930975,0.30315551268494456,0.23818739159026325,0.17212247702676997,0.11595144061402962,0.11551480135540793,0.15907215151475107,0.21855379818875953,0.28929363352099013,0.3607401535915047,0.4399793605036244,0.5125879359081136,0.591461773391476,0.6507105671918119,0.7107302420253765,0.7534034917397019,0.788948688642324,0.819903412317343,0.8392559111984461,0.8398212682446484,0.8367603206850553,0.8141881989841941,0.7989642422223895,0.7727063411674671,0.7463107911127898,0.7330067075539306,0.7685774125117462,0.7590536623571404,0.7720617436456267,0.81045080916138,0.8329632730594865,0.8137516412041004,0.7773011735863138,0.6963208791459419,0.6002595887215554,0.512127183040187,0.4297666813634011,0.41078612352594135,0.34365999112645884,0.25445473276331754,0.15120835849302683,0.09449570989997369,0.13505041468157852,0.2345152605159564,0.3292830632284387,0.4198392297097078,0.5261289802370035,0.6326562892934406,0.7391835640897124,0.8453907882314136,0.932107590329891,0.9454355122691016
0,1,2,3,4,5,6,7,8,9,10,11,12,13,14,15,16,17,18,19,20,21,22,23,24,25,26,27,28,29,30,31,32,33,34,35,36,37,38,39,40,41,42,43,44,45,46,47,48,49,50,51,52,53,54,55,56,57,58,59,60,61,62,63,64,65,66,67,68,69,70,71,72,73,74,75,76,77,78,79,80,81,82,83,84,85,86,87,88,89,90,91,92,93,94,95,96,97,98,99,100,101,102,103,104,105,106,107,108,109,110,111,112,113,114,115,116,117,118,119,120,121,122,123,124,125,126,127,128,129,130,131,132,133,134,135,136,137,138,139,140,141,142,143,144,145,146,147,148,149,150,151,152,153,154,155,156,157,158,159,160,161,162,163,164,165,166,167,168,169,170,171,172,173,174,175,176,177,178,179,180,181,182,183,184,185,186,187,188,189,190,191,192,193,194,195,196,197,198,199,200,201,202,203,204,205,206,207,208,209,210,211,212,213,214,215,216,217,218,219,220,221,222,223,224,225,226,227,228,229,230,231,232,233,234,235,236,237,238,239,240,241,242,243,244,245,246,247,248,249,250,251,252,253,254
0.5042131867943339,0.5238327843736691,0.5471779065906232,0.5649532460498438,0.5657653793993039,0.5498436619777366,0.5383076703096957,0.5328114958584053,0.541889879307128,0.5501066773821114,0.5329928739338613,0.4911888673815449,0.4426355373095462,0.3916021301989573,0.34587149987122545,0.29619154586547636,0.24476930110875605,0.19734741191563632,0.14966771455749706,0.09937451193011992,0.06788284708613457,0.088208706086214,0.1323203069615918,0.18337434343973336,0.2348951551200954,0.28641583803895354,0.3374613583680467,0.3831364355013188,0.43288701597290424,0.4844005855928347,0.5359216305612348,0.5874426755296352,0.6389637204980355,0.6904847654664353,0.7419976304262065,0.7916403778383178,0.8373943787662975,0.8884693571123913,0.9399880894967457,0.9890163946818228,0.9899111631541123,0.9410994526997384,0.8898766793979168,0.8437975273068518,0.7946216606067312,0.7434289028721103,0.697415029327436,0.6492286392791692,0.6051550218346785,0.5633408901379512,0.5256458406774885,0.496930466750907,0.46391961874704857,0.4328806242966553,0.41532007307367935,0.39597450825916136,0.3715314125670265,0.34773823831128314,0.3387326930822311,0.34776263152069953,0.36448051831983463,0.3879488386570057,0.41664662897677085,0.438861570234791,0.45293595418852306,0.4816854021484688,0.49382546512548,0.4865053455878737,0.4776359662079993,0.4448962465873588,0.3989995025369576,0.3511823385567091,0.29972527397367454,0.24820422900527428,0.1966831840368738,0.14520468991067736,0.09698223753179858,0.05011941017598731,0.005031717673988467,0.0,0.042113296486334995,0.0889095429010891,0.1371365234896189,0.18861515356709957,0.24013619853550006,0.29165724350389943,0.3431141059361674,0.39092948462133437,0.4382216498549788,0.48964162900823915,0.5411626739766392,0.5926837189450397,0.64420476391344,0.69572580888184,0.7472453048367412,0.7978935776924226,0.84328247647095,0.8937125616238225,0.9452303508511938,0.9948153558366256,1.0,0.952062971023684,0.9022331579397048,0.8565986075014077,0.8055986535288776,0.7550971195254327,0.7097070424491548,0.6591588123685498,0.6104544497931029,0.5652782465363771,0.5205302985973904,0.4796738036952669,0.44950542057799725,0.42666715377585296,0.4087095569564164,0.39501457193627354,0.37231903747552664,0.36134379577878606,0.36811459524654244,0.3772434740108469,0.39753812137957245,0.4348166067523319,0.46632674736703617,0.4860011899661406,0.4880976357693593,0.47586403379557496,0.47960840783248926,0.481681929903539,0.4875672720249763,0.4987207855190269,0.510456779099347,0.5112532578519159,0.5082853340747081,0.49691183324545996,0.49664727552583654,0.520601840493594,0.5307443701840308,0.5332967135653838,0.5144336983465364,0.47037612597374456,0.4246009517733348,0.37400592219714024,0.3283830479072193,0.2785341239451299,0.2280807158429735,0.1826979335717921,0.1321127841084917,0.0865933406772319,0.08051679251098587,0.11936349049466399,0.16588984990415956,0.21723442700515638,0.26875547197355665,0.32027651694195713,0.3717975619103565,0.42331860687875655,0.47483965184715704,0.5263606968155571,0.5778817417839573,0.6294027867523583,0.6809238317207583,0.7324378225007285,0.7822517202435723,0.8278982164104131,0.8789085759113721,0.9304277782532467,0.9797406188918377,0.9828997441395585,0.935321251922106,0.890906800407587,0.8519444438503364,0.808782931617913,0.7710587428917245,0.725287942692325,0.6765708544917765,0.6308897734702182,0.5857991578948748,0.5417106045179582,0.5059738112383444,0.4773655612743214,0.4581187264496477,0.4471832753454791,0.42985862693061205,0.40478370281504217,0.38708405093930887,0.398339188856092,0.4186373323111522,0.4400636167212423,0.4625592601327352,0.48870152186558136,0.5043817118008224,0.50931814827401,0.5359842621322813,0.5328904152748423,0.5231945363928258,0.5128487337781461,0.5034313074735014,0.5167137356335777,0.5221612733355531,0.5262344862316147,0.5187148498043269,0.47814127289124386,0.4301656908133321,0.3829109894677317,0.3351094808975804,0.28421025141862477,0.2386403744245046,0.18870670970935877,0.13836873202589473,0.10294871543754436,0.1227112322151015,0.16722516984343072,0.21730219067427725,0.2688189997725311,0.3203400447409307,0.37186015324307375,0.42266159526418245,0.4681097229055907,0.5183280624033778,0.5698454752136696,0.621366520182071,0.6728875651504703,0.7244086101188719,0.7758949865630894,0.8243373136814255,0.8710373013721188,0.9223023798329312,0.9597148441626758,0.9344915932422074,0.8857792297694972,0.8347541863052396,0.793872501203848,0.7541398156872902,0.7040261359534391,0.6547476627940306,0.6088324503741255,0.5618032832454355,0.518371016535007,0.482143540234239,0.4523728169345461,0.43815215380979977,0.44299667339155724,0.42371163133676604,0.39804644329758687,0.3742809635930012,0.3516805326071891,0.33792617163765926,0.3510522977417404,0.3856077204776466,0.4181315540141365,0.45224246497223264,0.4805002227288412,0.4957708155104589,0.5027782402725655,0.5200376182169132
0,1,2,3,4,5,6,7,8,9,10,11,12,13,14,15,16,17,18,19,20,21,22,23,24,25,26,27,28,29,30,31,32,33,34,35,36,37,38,39,40,41,42,43,44,45,46,47,48,49,50,51,52,53,54,55,56,57,58,59,60,61,62,63,64,65,66,67,68,69,70,71,72,73,74,75,76,77,78,79,80,81,82,83,84,85,86,87,88,89,90,91,92,93,94,95,96,97,98,99,100,101,102,103,104,105,106,107,108,109,110,111,112,113,114,115,116,117,118,119,120,121,122,123,124,125,126,127,128,129,130,131,132,133,134,135,136,137,138,139,140,141,142,143,144,145,146,147,148,149,150,151,152,153,154,155,156,157,158,159,160,161,162,163,164,165,166,167,168,169,170,171,172,173,174,175,176,177,178,179,180,181,182,183,184,185,186,187,188,189,190,191,192,193,194,195,196,197,198,199,200,201,202,203,204,205,206,207,208,209,210,211,212,213,214,215,216,217,218,219,220,221,222,223,224,225,226,227,228,229,230,231,232,233,234,235,236,237,238,239,240,241,242,243,244,245,246,247,248,249,250,251,252,253,254
0.8535591903165445,0.8312314288418454,0.8003659774621492,0.7740347357971613,0.7596574660325177,0.751671931404791,0.7647956233977635,0.7511411030036448,0.7623020665117144,0.770835103795863,0.7708659704877872,0.771887119191065,0.7802484595383934,0.7814022416992894,0.7953452476530463,0.8120000715517253,0.8217881546477015,0.8335000737592786,0.8335566591888184,0.835717820760427,0.8533503834610858,0.8536234086514116,0.8367756167895428,0.8477396675673643,0.8544342244029712,0.8505785663044363,0.8403500357197053,0.8540484751259663,0.8512167491334308,0.8347693954751456,0.8335555551288505,0.8335553467015107,0.8335553467015107,0.8335554564388734,0.8342849920368023,0.8498768633470197,0.8406349961129171,0.8335707446379241,0.8335563361280593,0.8356586734291187,0.8532670383701624,0.8544516898101175,0.8536316851654218,0.8248571055946532,0.7838966801924334,0.7390989025940051,0.6884103190542397,0.6374488995375027,0.5759878507347933,0.5232330233187601,0.4734316901656581,0.41197836121492637,0.3503541230798475,0.2887298849447695,0.22735531273158172,0.17947747716518325,0.12491089913355058,0.08356705217160165,0.08385106370480244,0.12663382303998016,0.1807839546992831,0.2290849875124117,0.29053272169872146,0.3521569598337999,0.41378119796887836,0.47540543610395725,0.537019251438315,0.5933102269515991,0.6398607620623427,0.7010058717234662,0.7626301098585446,0.8242542146885055,0.8850134424936189,0.9234551765721437,0.954075244834538,0.9587434232057754,0.9458137104412527,0.9528802460937,0.9392680992804001,0.9195758777114476,0.9163218426879247,0.8992647192662213,0.895513469833122,0.8789550878267578,0.8769149122808928,0.8938098958479106,0.8962543814962691,0.9014850337548235,0.9215832315231554,0.9376332109175451,0.949950863576273,0.9760601156430897,0.9835942505003663,1.0,0.9939184408494905,0.9661276939798982,0.9395509550113093,0.9031295383046962,0.8647180468841569,0.8411966635627328,0.8155468171687108,0.8082434658525632,0.7924633295014178,0.7933813399945899,0.8097250768015067,0.7960678211732457,0.7931058633332615,0.8065886572393719,0.7931686889294816,0.8030535655489217,0.8233803810534059,0.8312609580966339,0.8143872765988278,0.8222196634240491,0.8333035999545921,0.8198977049517486,0.8127078313082938,0.820617718159804,0.8333993648568763,0.8212798716484304,0.8197724453200865,0.8333292622876112,0.8352309750090536,0.8483816910809816,0.8344796779559589,0.8335554962094607,0.8335206365430565,0.8244678381857824,0.8123808819565186,0.7969548624799754,0.7767620976812961,0.7708584222723824,0.7637803498368774,0.7502058057398115,0.7529214154724286,0.7700271030168828,0.7653819997676847,0.7502723601317598,0.7499693018495557,0.749984289281795,0.7568628870254472,0.7595144973693837,0.7630277619035652,0.7493892203849177,0.699604623105659,0.6538619053854857,0.5967610317317282,0.5356140422011593,0.48900579837495295,0.43278288294547984,0.37347034234600684,0.3288220483719333,0.26883153540165994,0.21372352420952057,0.16621289280445062,0.10496394028360223,0.05743939076954119,0.04010528960495874,0.056852184850322285,0.10378470494848502,0.16523556729907485,0.22685951746563893,0.28687958008409575,0.33154675229040986,0.39083658327456616,0.45246024105366267,0.5140844791887411,0.5757087173238191,0.6373258278779224,0.6947640243121067,0.7393560715746794,0.7626689798125446,0.7360000298632596,0.7296605769082904,0.7479771405378899,0.7699994018897138,0.7699476749779013,0.7523799326871345,0.7499713022392709,0.7499692790182926,0.7499692790182926,0.7501864580243365,0.7633185968885501,0.7723174710264251,0.7905076195467964,0.8098157406933275,0.81776721261082,0.8454652140289372,0.8729343190750898,0.9039819505794409,0.9337506147688637,0.9217385480120046,0.8963295970657565,0.8708281786627894,0.8399401411394294,0.8092300253733353,0.7782489629384677,0.7391994189556819,0.7063909785503149,0.683395646514676,0.6558024136931944,0.6448983458938282,0.6301123204172341,0.6429915627971257,0.6456569643232442,0.6576377471358024,0.6779133379015363,0.6789017716059291,0.6773614194536335,0.6872428599223013,0.6909538417570724,0.7074510264295011,0.708176307778535,0.708674533645901,0.7242216420055221,0.7373712806296888,0.7653197970026953,0.7728249341217297,0.7902607762622376,0.7910138337153985,0.7760662543916403,0.7912058774504556,0.8102899886927766,0.8126582376408451,0.8126588297807062,0.8126588297807062,0.8126588297807062,0.8126588297807062,0.8126588297807062,0.8126588297807062,0.8126588297807062,0.8126453914675387,0.8063434076836815,0.7920235139490428,0.7941503369887264,0.8108192416655711,0.7942180046610701,0.7917631248890813,0.7864497197541236,0.7418289947482108,0.7001946169988091,0.6553219276107454,0.5981749217711805,0.5527810738747139,0.49220442221708804,0.4305803586307011,0.36895612049562176,0.307332456824589,0.24802596271418542,0.2033682296239907,0.1436117124449705,0.09577263879704612,0.04116820200429405,0.0,0.0047589930556584115
0,1,2,3,4,5,6,7,8,9,10,11,12,13,14,15,16,17,18,19,20,21,22,23,24,25,26,27,28,29,30,31,32,33,34,35,36,37,38,39,40,41,42,43,44,45,46,47,48,49,50,51,52,53,54,55,56,57,58,59,60,61,62,63,64,65,66,67,68,69,70,71,72,73,74,75,76,77,78,79,80,81,82,83,84,85,86,87,88,89,90,91,92,93,94,95,96,97,98,99,100,101,102,103,104,105,106,107,108,109,110,111,112,113,114,115,116,117,118,119,120,121,122,123,124,125,126,127,128,129,130,131,132,133,134,135,136,137,138,139,140,141,142,143,144,145,146,147,148,149,150,151,152,153,154,155,156,157,158,159,160,161,162,163,164,165,166,167,168,169,170,171,172,173,174,175,176,177,178,179,180,181,182,183,184,185,186,187,188,189,190,191,192,193,194,195,196,197,198,199,200,201,202,203,204,205,206,207,208,209,210,211,212,213,214,215,216,217,218,219,220,221,222,223,224,225,226,227,228,229,230,231,232,233,234,235,236,237,238,239,240,241,242,243,244,245,246,247,248,249,250,251,252,253,254
0.8535591903165445,0.8312314288418454,0.8003659774621492,0.7740347357971613,0.7596574660325177,0.751671931404791,0.7647956233977635,0.7511411030036448,0.7623020665117144,0.770835103795863,0.7708659704877872,0.771887119191065,0.7802484595383934,0.7814022416992894,0.7953452476530463,0.8120000715517253,0.8217881546477015,0.8335000737592786,0.8335566591888184,0.835717820760427,0.8533503834610858,0.8536234086514116,0.8367756167895428,0.8477396675673643,0.8544342244029712,0.8505785663044363,0.8403500357197053,0.8540484751259663,0.8512167491334308,0.8347693954751456,0.8335555551288505,0.8335553467015107,0.8335553467015107,0.8335554564388734,0.8342849920368023,0.8498768633470197,0.8406349961129171,0.8335707446379241,0.8335563361280593,0.8356586734291187,0.8532670383701624,0.8544516898101175,0.8536316851654218,0.8248571055946532,0.7838966801924334,0.7390989025940051,0.6884103190542397,0.6374488995375027,0.5759878507347933,0.5232330233187601,0.4734316901656581,0.41197836121492637,0.3503541230798475,0.2887298849447695,0.22735531273158172,0.17947747716518325,0.12491089913355058,0.08356705217160165,0.08385106370480244,0.12663382303998016,0.1807839546992831,0.2290849875124117,0.29053272169872146,0.3521569598337999,0.41378119796887836,0.47540543610395725,0.537019251438315,0.5933102269515991,0.6398607620623427,0.7010058717234662,0.7626301098585446,0.8242542146885055,0.8850134424936189,0.9234551765721437,0.954075244834538,0.9587434232057754,0.9458137104412527,0.9528802460937,0.9392680992804001,0.9195758777114476,0.9163218426879247,0.8992647192662213,0.895513469833122,0.8789550878267578,0.8769149122808928,0.8938098958479106,0.8962543814962691,0.9014850337548235,0.9215832315231554,0.9376332109175451,0.949950863576273,0.9760601156430897,0.9835942505003663,1.0,0.9939184408494905,0.9661276939798982,0.9395509550113093,0.9031295383046962,0.8647180468841569,0.8411966635627328,0.8155468171687108,0.8082434658525632,0.7924633295014178,0.7933813399945899,0.8097250768015067,0.7960678211732457,0.7931058633332615,0.8065886572393719,0.7931686889294816,0.8030535655489217,0.8233803810534059,0.8312609580966339,0.8143872765988278,0.8222196634240491,0.8333035999545921,0.8198977049517486,0.8127078313082938,0.820617718159804,0.8333993648568763,0.8212798716484304,0.8197724453200865,0.8333292622876112,0.8352309750090536,0.8483816910809816,0.8344796779559589,0.8335554962094607,0.8335206365430565,0.8244678381857824,0.8123808819565186,0.7969548624799754,0.7767620976812961,0.7708584222723824,0.7637803498368774,0.7502058057398115,0.7529214154724286,0.7700271030168828,0.7653819997676847,0.7502723601317598,0.7499693018495557,0.749984289281795,0.7568628870254472,0.7595144973693837,0.7630277619035652,0.7493892203849177,0.699604623105659,0.6538619053854857,0.5967610317317282,0.5356140422011593,0.48900579837495295,0.43278288294547984,0.37347034234600684,0.3288220483719333,0.26883153540165994,0.21372352420952057,0.16621289280445062,0.10496394028360223,0.05743939076954119,0.04010528960495874,0.056852184850322285,0.10378470494848502,0.16523556729907485,0.22685951746563893,0.28687958008409575,0.33154675229040986,0.39083658327456616,0.45246024105366267,0.5140844791887411,0.5757087173238191,0.6373258278779224,0.6947640243121067,0.7393560715746794,0.7626689798125446,0.7360000298632596,0.7296605769082904,0.7479771405378899,0.7699994018897138,0.7699476749779013,0.7523799326871345,0.7499713022392709,0.7499692790182926,0.7499692790182926,0.7501864580243365,0.7633185968885501,0.7723174710264251,0.7905076195467964,0.8098157406933275,0.81776721261082,0.8454652140289372,0.8729343190750898,0.9039819505794409,0.9337506147688637,0.9217385480120046,0.8963295970657565,0.8708281786627894,0.8399401411394294,0.8092300253733353,0.7782489629384677,0.7391994189556819,0.7063909785503149,0.683395646514676,0.6558024136931944,0.6448983458938282,0.6301123204172341,0.6429915627971257,0.6456569643232442,0.6576377471358024,0.6779133379015363,0.6789017716059291,0.6773614194536335,0.6872428599223013,0.6909538417570724,0.7074510264295011,0.708176307778535,0.708674533645901,0.7242216420055221,0.7373712806296888,0.7653197970026953,0.7728249341217297,0.7902607762622376,0.7910138337153985,0.7760662543916403,0.7912058774504556,0.8102899886927766,0.8126582376408451,0.8126588297807062,0.8126588297807062,0.8126588297807062,0.8126588297807062,0.8126588297807062,0.8126588297807062,0.8126588297807062,0.8126453914675387,0.8063434076836815,0.7920235139490428,0.7941503369887264,0.8108192416655711,0.7942180046610701,0.7917631248890813,0.7864497197541236,0.7418289947482108,0.7001946169988091,0.6553219276107454,0.5981749217711805,0.5527810738747139,0.49220442221708804,0.4305803586307011,0.36895612049562176,0.307332456824589,0.24802596271418542,0.2033682296239907,0.1436117124449705,0.09577263879704612,0.04116820200429405,0.0,0.0047589930556584115
0,1,2,3,4,5,6,7,8,9,10,11,12,13,14,15,16,17,18,19,20,21,22,23,24,25,26,27,28,29,30,31,32,33,34,35,36,37,38,39,40,41,42,43,44,45,46,47,48,49,50,51,52,53,54,55,56,57,58,59,60,61,62,63,64,65,66,67,68,69,70,71,72,73,74,75,76,77,78,79,80,81,82,83,84,85,86,87,88,89,90,91,92,93,94,95,96,97,98,99,100,101,102,103,104,105,106,107,108,109,110,111,112,113,114,115,116,117,118,119,120,121,122,123,124,125,126,127,128,129,130,131,132,133,134,135,136,137,138,139,140,141,142,143,144,145,146,147,148,149,150,151,152,153,154,155,156,157,158,159,160,161,162,163,164,165,166,167,168,169,170,171,172,173,174,175,176,177,178,179,180,181,182,183,184,185,186,187,188,189,190,191,192,193,194,195,196,197,198,199,200,201,202,203,204,205,206,207,208,209,210,211,212,213,214,215,216,217,218,219,220,221,222,223,224,225,226,227,228,229,230,231,232,233,234,235,236,237,238,239,240,241,242,243,244,245,246,247,248,249,250,251,252,253,254
0.5201926156421736,0.52023168523761,0.5183882893886157,0.5102694637108324,0.5051867413910558,0.5018735687513153,0.5060074275254289,0.5056029358517039,0.5037019204995462,0.5008801227311223,0.5008334733175995,0.4972659183140914,0.4926482015727891,0.48733758851728026,0.48392764386707854,0.4852355301251574,0.48920765576713166,0.49476732866364315,0.5014183006699608,0.5036570736508866,0.5001327045168322,0.4890909017366003,0.47238881407901046,0.45398718929195925,0.43381403452807454,0.41172464655965957,0.38860801719755944,0.36469746317301677,0.34103772242375985,0.3174146145139498,0.2929458872011662,0.2683533115517177,0.24457267001587324,0.22035272851119247,0.19443536329205924,0.16694439505500525,0.14275223184334662,0.11882608677644402,0.09490650431007808,0.07125454823544469,0.04833615454890189,0.026310159992355753,0.013485924517968262,0.027169469407107905,0.04833689337190278,0.06983953892082229,0.09363948498190106,0.11749956505239578,0.13899376453030643,0.16038300974568453,0.18115107708649414,0.20099303134911106,0.21949591005466373,0.23704378407736149,0.2539654949894067,0.2717815774160771,0.2871202676240665,0.3052308370006146,0.3256808171901857,0.3491293348235348,0.3759971141936914,0.39988052360506654,0.4269169031195885,0.45456512266014626,0.47964370658735045,0.50506682349413,0.5327365141091523,0.5603748181780891,0.5853259496090103,0.6108815593763499,0.6385573373678097,0.6662384210742043,0.6918635741763226,0.716747220091261,0.7443781606264672,0.7720831005380488,0.7993930487360457,0.8233178026361725,0.8502011969463448,0.8779041577343893,0.905609177761616,0.9330028408054303,0.953529022237338,0.9522576950023274,0.9290845159127774,0.9014344561471399,0.8744366531124939,0.8505452979226809,0.823316888801477,0.795612144538802,0.7679069706895372,0.740202189254648,0.7128946616716076,0.6889772743001699,0.6620846000245744,0.6343809735816148,0.6067500482683812,0.5820201419423064,0.5618452184753671,0.5436966212378094,0.5250544022122182,0.5142309889823085,0.5135309034480638,0.5084473350053011,0.5006233241846687,0.4928304450606579,0.4966089032471055,0.4989046328790363,0.5008998190326979,0.49852407376469476,0.4945003905276514,0.49379006004877646,0.4924483444432126,0.488959232918731,0.48658879778932607,0.483861074442427,0.48379693143489155,0.48425448307493135,0.48837184792413557,0.4937614402656749,0.49844363276636416,0.4966209463979675,0.4882820982339098,0.4727533679814163,0.4536984100038385,0.43742789804827553,0.41713378913795907,0.3949516863178434,0.371896910607599,0.34813417730879836,0.32433342790695374,0.29936152406329775,0.27545731469412826,0.2515511235405401,0.2277140125584951,0.20676874755846153,0.18636561680827102,0.16177292655595465,0.13776202960605866,0.11043655357867022,0.08577209419373627,0.0618014021224379,0.03800988333680583,0.01623528793621226,0.0,0.009397450542114383,0.030145148392111965,0.05175563393914984,0.07269358131285814,0.09556578372186009,0.11928980832975178,0.1412016790948627,0.16274980590650845,0.18273017374656209,0.20318447970767428,0.22158464451040316,0.23878070978576094,0.255421246801423,0.2748666788800386,0.2919242056405199,0.31066917243924697,0.3318227437521418,0.35694842871561805,0.3807984477881552,0.4078143235380304,0.4323984535585037,0.45834049024885437,0.4860259140304968,0.5124503170382745,0.5366539003615455,0.5641475252150504,0.5918526493926154,0.6195570268706965,0.6467040680507945,0.6705751699950933,0.6976742362894135,0.7253786465005378,0.753048744114373,0.7783704121999042,0.8035410842718431,0.8311994697591953,0.858901451210718,0.885595101303766,0.9096208736080258,0.937020226203753,0.9643337936553098,0.987862765390759,1.0,0.982425877978643,0.9561581013873814,0.9320668827799787,0.9046092578125748,0.8769041833067086,0.8491990583279871,0.8217028188375284,0.7974929445268828,0.7710773723972097,0.7433781861987871,0.7156733457973374,0.6883337480162359,0.6643967042161332,0.6375556758063599,0.6098521890908646,0.5821668540348667,0.5565402110392381,0.5365808642485671,0.5179524694803357,0.5090972801229451,0.5086477628270402,0.5036749477498474,0.4971452578910913,0.48828307525138104,0.49393381732601405,0.4986870702727113,0.4979572416668252,0.49418400878413227,0.4937965497670127,0.4936741361808453,0.49051065268463734,0.48880949423318765,0.48879722275568716,0.48934760609712946,0.4933462450178058,0.4975913178592538,0.50354405783079,0.5084265135065227,0.5086760375401517,0.5038432676554021,0.4910082214990412,0.47488864757345717,0.4533828202777379,0.42907903598825736,0.4074939577112219,0.384373123903863,0.360420504916111,0.3360574382255217,0.31402520838435266,0.31480741393832434,0.322990649607528,0.30519914024736416,0.292292011577884,0.2785392368924928,0.2540649430472125,0.229198612699828,0.2052533039065575,0.17984123889723624,0.15614651447540884,0.1325231670105984,0.10805489618403818,0.08410452139637914,0.0609595590105102,0.037214307718483663,0.016178129771405536,0.02114445939465054,0.04012380903215251
0,1,2,3,4,5,6,7,8,9,10,11,12,13,14,15,16,17,18,19,20,21,22,23,24,25,26,27,28,29,30,31,32,33,34,35,36,37,38,39,40,41,42,43,44,45,46,47,48,49,50,51,52,53,54,55,56,57,58,59,60,61,62,63,64,65,66,67,68,69,70,71,72,73,74,75,76,77,78,79,80,81,82,83,84,85,86,87,88,89,90,91,92,93,94,95,96,97,98,99,100,101,102,103,104,105,106,107,108,109,110,111,112,113,114,115,116,117,118,119,120,121,122,123,124,125,126,127,128,129,130,131,132,133,134,135,136,137,138,139,140,141,142,143,144,145,146,147,148,149,150,151,152,153,154,155,156,157,158,159,160,161,162,163,164,165,166,167,168,169,170,171,172,173,174,175,176,177,178,179,180,181,182,183,184,185,186,187,188,189,190,191,192,193,194,195,196,197,198,199,200,201,202,203,204,205,206,207,208,209,210,211,212,213,214,215,216,217,218,219,220,221,222,223,224,225,226,227,228,229,230,231,232,233,234,235,236,237,238,239,240,241,242,243,244,245,246,247,248,249,250,251,252,253,254
0.23738783469459368,0.24799515176980802,0.2878900663519264,0.3263736726777837,0.3667069852707463,0.4068739608571619,0.4222967903573127,0.45779845077344605,0.47415230261440655,0.4668400421479424,0.46316844483629493,0.46216921443494474,0.4644971913142979,0.4660986256078292,0.49382154475145734,0.49921133881103597,0.48609667240617593,0.471856376306365,0.457938052017711,0.44795580830675163,0.411883369622275,0.36224439744497605,0.3157808904141135,0.26179539143889086,0.21406838597549416,0.16122242780319995,0.10503132941056492,0.0585966654172283,0.011745117611569045,0.0,0.035598212161790155,0.08569997232159432,0.13507104253102864,0.19178898035582126,0.2438898716662674,0.2922498848840953,0.34854418082779426,0.39604047677087717,0.44913983749762076,0.5059492722684875,0.5573495783207787,0.6063465292651768,0.6630800914205714,0.7197597217718705,0.76863632987182,0.8201958599137473,0.8770335029607517,0.9339002569060697,0.9892447609847417,1.0,0.9562928140363551,0.9103485555946578,0.864678461299901,0.8138332162679083,0.7677693673350987,0.720746376692643,0.6864645431316654,0.67079626082614,0.6825136366678528,0.7068258880293743,0.7322466325013259,0.7637533517924568,0.7892984126900147,0.8082319159014415,0.8083801665019972,0.783717391814982,0.7629680465444504,0.7376196845385659,0.7084506410300397,0.674266810769462,0.6400361354657229,0.6105952079169494,0.5769394526952567,0.5428940853795852,0.5120569815354972,0.4836217433295702,0.45847590594503806,0.4465874438717945,0.4306984094607631,0.4052081081261991,0.3854944872306536,0.3728041948468783,0.3728666271288694,0.38422793655432086,0.40320672423834436,0.4206771186697784,0.43823098071079825,0.4447041673404235,0.46100685052838175,0.4558125518183158,0.45316344303208345,0.4553353663416462,0.4737527435743716,0.48117206925700895,0.49188392277195714,0.49081616437585174,0.4807301431770301,0.4731791245492025,0.4641132794397804,0.4343662376847077,0.3829986193722861,0.3261725071335779,0.27103846676869914,0.22488801401071168,0.16909130943754946,0.11529691446227752,0.07038407970048888,0.051150372853731696,0.08016724627414984,0.12842053910495377,0.17844999186372168,0.23522047390594203,0.2894415558854515,0.3360476343068788,0.3923097922073877,0.44720168033329344,0.4935662424932947,0.5493441556501035,0.6000976617041771,0.6497254785978703,0.7062972702148667,0.755162090342413,0.8067338464169254,0.8634728834498127,0.9134267023869311,0.951184385268995,0.9280273558417433,0.8767989675942398,0.8307963973603174,0.7839094270376528,0.7412348112253522,0.6999538177050821,0.6725337027408731,0.6731071694875768,0.6940512740977747,0.7199621001035865,0.7503178482743706,0.7773316495471354,0.8076939913387342,0.8340304959040483,0.8374621773529238,0.8163502106864438,0.7914356157609852,0.7667370096175099,0.743438106194811,0.7125371325901297,0.674297805064977,0.6398182826727727,0.6056143686084474,0.5716452677333494,0.5405945769780307,0.519728448100969,0.49463638872560667,0.47697938484172075,0.4507746541074211,0.42905079423817494,0.4106574371187732,0.39090073948557835,0.38748453348993683,0.39877951181355265,0.4112183294125118,0.4254057331462784,0.4380100986711515,0.4403140338653211,0.453511386716988,0.4752830016619294,0.4708266283116793,0.481264240731091,0.4861897698749429,0.4802880364787323,0.47581899236217406,0.46670345393275836,0.45379097979076377,0.4169521671841978,0.3648942889532838,0.318100080488533,0.2642033780136923,0.2130908613794542,0.16379136220507173,0.10894358795995873,0.0736851235731728,0.07515007768329651,0.11181838417631451,0.16496096919922176,0.21138286245234994,0.26739508906305365,0.3227202061585055,0.3689783156240518,0.4236603796392213,0.4701216485793811,0.5246227819431826,0.5748409905290113,0.6250067528563887,0.6817436383215667,0.7331217035720115,0.7821403123139361,0.8388748563645345,0.8957418394169538,0.9525345694449392,0.9930748278860988,0.9644892861350534,0.9159623442116378,0.868143782870769,0.8226130876316504,0.7773215511232103,0.7287509654636857,0.6930795505069463,0.6756765625583485,0.6848799567095192,0.7079480827429299,0.731128835082925,0.7611109783419665,0.7933961213757126,0.8164866400361022,0.8272687766580127,0.807254618464297,0.779190372296616,0.7556046277563961,0.7233973261838673,0.6963210558530193,0.6651704304201767,0.6363622797282811,0.6025445175941719,0.5679320766238054,0.531868934412409,0.5027650285044167,0.48075085513436067,0.4681107119431247,0.46201602669986475,0.44250685529423395,0.4210743890911912,0.41276178237410566,0.41354663394964764,0.4244895303831582,0.43721963107741324,0.4517453338751056,0.453195689293302,0.4597440123039611,0.490374809419754,0.5068097534657539,0.5145383096802245,0.5201703272019667,0.5103578394731847,0.5071824492876988,0.5021923280184324,0.49900219111991184,0.46315616919501457,0.41590888475045373,0.36743775829144254,0.3158585306131545,0.26244698176201564,0.21519725863547845,0.1588029649692353,0.10289193343683989,0.06700773607014532
0,1,2,3,4,5,6,7,8,9,10,11,12,13,14,15,16,17,18,19,20,21,22,23,24,25,26,27,28,29,30,31,32,33,34,35,36,37,38,39,40,41,42,43,44,45,46,47,48,49,50,51,52,53,54,55,56,57,58,59,60,61,62,63,64,65,66,67,68,69,70,71,72,73,74,75,76,77,78,79,80,81,82,83,84,85,86,87,88,89,90,91,92,93,94,95,96,97,98,99,100,101,102,103,104,105,106,107,108,109,110,111,112,113,114,115,116,117,118,119,120,121,122,123,124,125,126,127,128,129,130,131,132,133,134,135,136,137,138,139,140,141,142,143,144,145,146,147,148,149,150,151,152,153,154,155,156,157,158,159,160,161,162,163,164,165,166,167,168,169,170,171,172,173,174,175,176,177,178,179,180,181,182,183,184,185,186,187,188,189,190,191,192,193,194,195,196,197,198,199,200,201,202,203,204,205,206,207,208,209,210,211,212,213,214,215,216,217,218,219,220,221,222,223,224,225,226,227,228,229,230,231,232,233,234,235,236,237,238,239,240,241,242,243,244,245,246,247,248,249,250,251,252,253,254
0.48214313968781664,0.5103705394625591,0.5601968250793732,0.6022601980462792,0.6425529755572135,0.6943300579271567,0.7534693866235651,0.7863861726233106,0.8225622741746474,0.8710208902274861,0.845899504338949,0.785772344075323,0.7356248684051532,0.6749841415332596,0.6166377509467087,0.5652163563988477,0.5074428026342663,0.455991586876237,0.4013377802552971,0.3705126787175672,0.3298608390026523,0.2792457042738419,0.24950744911675926,0.2051302677523812,0.1565874583931426,0.13611875285828834,0.15194726765539324,0.12903740293729715,0.10052019833229364,0.10704037285628676,0.1349205812987031,0.16483019381326436,0.14610350035980124,0.11278087956845528,0.08155490985220659,0.04759412007807118,0.024238728193663128,0.011478147175139508,0.0,0.02261633328565127,0.056623838300464246,0.0980200377343019,0.13602039433805757,0.17608724370010487,0.21772927665062758,0.2593432319854747,0.29876981482271425,0.3376347473437753,0.3839687365618083,0.42955870913881133,0.46237829159144184,0.48055352047116484,0.4880749007565135,0.48451829509970823,0.47253487326038,0.47806491369312676,0.4798401692856138,0.4732317892762681,0.4458614702953074,0.4334294245731565,0.43858486921617157,0.4738976951173868,0.5178760588010074,0.5567069068945378,0.5764684637791242,0.5799501315988569,0.5876269597584103,0.6001052634982265,0.5980453619906321,0.5859382940483524,0.5741133224276882,0.5833886784686508,0.6209833126489741,0.67528274502093,0.7247900896105164,0.757854030084494,0.8114505121682032,0.8606909313740321,0.8973864614990665,0.9417474556637524,0.9903219407882351,1.0,0.9492892658573213,0.8953682276648931,0.8334591179778341,0.7814670585328156,0.7241823388253197,0.6722841895601115,0.6159483896687021,0.565771255795521,0.5053820010117955,0.4503128361928499,0.40370046694117034,0.3620545098261494,0.33266058061216164,0.31172231556157515,0.29059717869154733,0.26282355966902937,0.23774641476012848,0.20785202113973567,0.17664897215076047,0.1466998712522991,0.12629197849768747,0.1284657174250321,0.15344519134431334,0.18886104770035095,0.22719045677366934,0.26688482945385195,0.31028158587146315,0.35526217430427165,0.3969208129285251,0.4393558570581635,0.4889875205822132,0.5268875044265688,0.5618858905107702,0.5930811687959303,0.6172490022738657,0.6198697551623127,0.6151452807499314,0.6040949859314964,0.5867519444651776,0.5543716048115757,0.5192742754681512,0.5184728757642367,0.5495049867565069,0.5933811686079298,0.6320038894289297,0.6229575799531695,0.6197699013385205,0.610789150838972,0.6043696990923659,0.6043287049812913,0.6043357285886519,0.6080197800636764,0.6406918085392377,0.6882863451731334,0.7347799657181309,0.7739390580221772,0.8269973356035423,0.8773356112773709,0.9152954246909175,0.9568282676537572,0.9981789194500426,0.9620576503440277,0.9007999266156079,0.8504138565639163,0.7908646493477436,0.7380668946813507,0.6815815102889946,0.6288881010520613,0.5749632895888284,0.5254653794932715,0.481095851221498,0.45048105997077004,0.40335947313185905,0.3661082488676217,0.33573459969882835,0.31106968033103577,0.28629127561254286,0.25766387358937504,0.22851588414442103,0.19447452408795796,0.1675283838681838,0.14340470660005167,0.13826410762245622,0.15470696684049923,0.1856439388570852,0.2224323481890358,0.2639630286161627,0.3055619792502613,0.34668676333072135,0.38387460986306277,0.42470485772484823,0.46335678915967193,0.5054034283696898,0.5431947915381232,0.5753381033346243,0.600709553390399,0.6028427559700105,0.590529174927009,0.5812489457352958,0.5729055630468385,0.5574481260112121,0.5221106311344532,0.4974595357140741,0.5079324088114712,0.5467957124314697,0.5896045945074353,0.5921115474874248,0.5771535165674941,0.565435965779268,0.5655689680151861,0.5591429862449129,0.5576472353958128,0.553268007915352,0.5492872656237013,0.5798947952354583,0.6260036149990476,0.6755894816289656,0.7067801150283124,0.7608417793701521,0.820372466616559,0.861872440694925,0.8994318319823633,0.9470594626932121,0.9532925947152511,0.9038260024357245,0.8465913063432047,0.794566473511559,0.7330207817498837,0.682436537075203,0.6232886642548743,0.5697851944349681,0.5160250294467001,0.4748259667347541,0.4398479676131397,0.3939117110758841,0.34420706753571517,0.306470800350628,0.2816565779265585,0.25298815776330974,0.22763035151486966,0.2002933976236143,0.16939345952408802,0.13424588092016343,0.1069646826417947,0.09186854679831313,0.09243264210531432,0.11384142822252485,0.15110893012341187,0.18831697648710666,0.22535502079149294,0.2665983463608783,0.3070941522077466,0.3447053478128157,0.38463981167406835,0.4155433803533475,0.47026563351486583,0.5109473133715783,0.5422228802698656,0.5704106454836446,0.5871952695156666,0.5887705178411498,0.5876397570464023,0.574323122137629,0.5521338351390526,0.522339933263221,0.5136387223249099,0.5434658289549068,0.5867683073953822,0.6286077384822235,0.6207516751246667,0.6081117321665386,0.6077795601549671,0.597984425899142
0,1,2,3,4,5,6,7,8,9,10,11,12,13,14,15,16,17,18,19,20,21,22,23,24,25,26,27,28,29,30,31,32,33,34,35,36,37,38,39,40,41,42,43,44,45,46,47,48,49,50,51,52,53,54,55,56,57,58,59,60,61,62,63,64,65,66,67,68,69,70,71,72,73,74,75,76,77,78,79,80,81,82,83,84,85,86,87,88,89,90,91,92,93,94,95,96,97,98,99,100,101,102,103,104,105,106,107,108,109,110,111,112,113,114,115,116,117,118,119,120,121,122,123,124,125,126,127,128,129,130,131,132,133,134,135,136,137,138,139,140,141,142,143,144,145,146,147,148,149,150,151,152,153,154,155,156,157,158,159,160,161,162,163,164,165,166,167,168,169,170,171,172,173,174,175,176,177,178,179,180,181,182,183,184,185,186,187,188,189,190,191,192,193,194,195,196,197,198,199,200,201,202,203,204,205,206,207,208,209,210,211,212,213,214,215,216,217,218,219,220,221,222,223,224,225,226,227,228,229,230,231,232,233,234,235,236,237,238,239,240,241,242,243,244,245,246,247,248,249,250,251,252,253,254
0.8215947728237964,0.871635131839785,0.9236099814623582,0.9701219275245558,0.9999999999999998,0.9736819645033823,0.9213018231366277,0.8673053424235964,0.813306566075737,0.7596026618129172,0.7118663934789355,0.6607409116888423,0.6083036013094492,0.5614404763912073,0.5093024484868749,0.46291023941341525,0.41733858004612756,0.3731039843965751,0.32675104414385414,0.27871144011072113,0.23120953238925912,0.1843026460151962,0.1624169876318604,0.13939789649463075,0.12728873429978016,0.134749430639441,0.15777848465613808,0.15908656366899,0.15948267042759534,0.16736109641686525,0.16438755813732175,0.16137557219826393,0.15943113281198817,0.16128918767266387,0.18035209434420651,0.20931504881115193,0.2480811904696445,0.28658237013193033,0.3251172407238838,0.3637937945018379,0.40318277820339277,0.44354847966912403,0.4820053154536317,0.5168552424832247,0.5303068214497366,0.5063876112285504,0.4682963737020249,0.4279669708617724,0.3856053246030917,0.34405633663338087,0.30003453042621464,0.2524865151127147,0.2107036707093488,0.1687377615654273,0.13252516705600592,0.09868513868739104,0.06974546687963024,0.05200790947934508,0.05877321147348136,0.06447114774953522,0.08865762208194194,0.13556089919229874,0.1845714374994567,0.23324259600798403,0.27999475318739786,0.33242694787950744,0.3803717712871788,0.43122979051542165,0.4851032491836935,0.5341941364896499,0.5838285255959985,0.6377546200641231,0.6911737519821768,0.7381790708320926,0.7903134407872294,0.8440206127250092,0.8916682618697604,0.9313222286127341,0.9212763536945767,0.8776692567233149,0.8258528352563614,0.7718868852441683,0.7209258549887319,0.6730601236166225,0.619318089957297,0.5673082467884996,0.5202223163796593,0.46676696676320706,0.4150185091078096,0.37238238481828767,0.3277330578627775,0.28027635397581885,0.2336031445574771,0.1836526338005453,0.15016912165983598,0.1355419362246435,0.11271177374161523,0.11678116478365586,0.13281972642244955,0.14156536792819874,0.13877243888406676,0.14519499324147667,0.1456499108229521,0.1484857696214339,0.14112954632967645,0.1469473498344629,0.17415879348714758,0.20264501813586144,0.23811969494550467,0.27848557032571764,0.31651420937930763,0.3571970678137677,0.396115910791792,0.43460205838619803,0.47446950583837433,0.5048304854100536,0.501855426387271,0.4740302434199881,0.4367641766387016,0.3973313661002864,0.3557926057676266,0.31260485705472885,0.2694673633969371,0.2289252629523051,0.18768846433991682,0.14516025935158594,0.10843922772658088,0.07883726334586827,0.06256230071913271,0.0657931135777452,0.06680953309963855,0.09096932993316131,0.13162723375314744,0.17645597618272646,0.22441758328743933,0.27563149792199093,0.32311365237691003,0.37676077403977803,0.43075950111641026,0.48475693915050044,0.5376611240727234,0.5844496022515069,0.637312075872075,0.6910881175204773,0.7390654577046909,0.7898891399238692,0.8437654106847325,0.8926628936434178,0.929323803547524,0.919792705496411,0.8736023470671028,0.8259892747779733,0.7723085138248524,0.7192136003293845,0.6724203125417032,0.6197540231232119,0.5667825983518229,0.520014901093413,0.46748135562211623,0.42020993866067125,0.3778107244894484,0.3329071388625575,0.2797930209137034,0.2318875708720125,0.1855078177068723,0.1538582583701842,0.147665437513119,0.13519802633515532,0.1362747224695331,0.15355441174197648,0.17332345168082686,0.1905613306919718,0.19484165059958514,0.20050439071350135,0.19028833863793437,0.17220733058373194,0.16040191757707167,0.17123259434741045,0.20029552850906351,0.23480104183074424,0.2720731740136362,0.31006933321808283,0.34925709222634116,0.3939754444166552,0.43580973242047416,0.47430319683810507,0.5086191444785,0.5208395776484536,0.4979162430035773,0.457625257656628,0.4146367332268108,0.37309122417717666,0.3295007852363385,0.28571424859539607,0.2449634558986553,0.20226277806193083,0.15958334202590274,0.12087986849796573,0.08302516832582918,0.044575556719010034,0.02005678474720174,0.006273408665126379,0.0,0.01888882107429035,0.052225734950588576,0.09816542221244617,0.14442926593703076,0.1909464281799207,0.2431309459885711,0.28994793108752326,0.3426523455931598,0.39645755290766127,0.4447028548818923,0.495234672524024,0.5492013099312392,0.6031840701481752,0.6543622457564844,0.6953237268621935,0.7373877499587185,0.7899640367575331,0.8367974211916602,0.8893174398434265,0.930925444412624,0.9161021050139808,0.8696528202854965,0.8158955313137748,0.7654393487721196,0.7197404949800552,0.6800358705065082,0.6295284367563914,0.5827093898777551,0.5305317296402792,0.48374242390061895,0.4333632189878722,0.38932116378010995,0.3460232188036827,0.2997402875692272,0.2524680098574785,0.20063584165416648,0.15538737298489402,0.13420415602792435,0.12449170500707063,0.11880918977281474,0.13253176873789774,0.14775246564985012,0.15090592813247938,0.15554589961848064,0.16021780877545333,0.15198146475388064,0.15152691483752956,0.14609435459221842,0.15431351692013417,0.18349556298124625,0.2177247897707053,0.2513580898133967
0,1,2,3,4,5,6,7,8,9,10,11,12,13,14,15,16,17,18,19,20,21,22,23,24,25,26,27,28,29,30,31,32,33,34,35,36,37,38,39,40,41,42,43,44,45,46,47,48,49,50,51,52,53,54,55,56,57,58,59,60,61,62,63,64,65,66,67,68,69,70,71,72,73,74,75,76,77,78,79,80,81,82,83,84,85,86,87,88,89,90,91,92,93,94,95,96,97,98,99,100,101,102,103,104,105,106,107,108,109,110,111,112,113,114,115,116,117,118,119,120,121,122,123,124,125,126,127,128,129,130,131,132,133,134,135,136,137,138,139,140,141,142,143,144,145,146,147,148,149,150,151,152,153,154,155,156,157,158,159,160,161,162,163,164,165,166,167,168,169,170,171,172,173,174,175,176,177,178,179,180,181,182,183,184,185,186,187,188,189,190,191,192,193,194,195,196,197,198,199,200,201,202,203,204,205,206,207,208,209,210,211,212,213,214,215,216,217,218,219,220,221,222,223,224,225,226,227,228,229,230,231,232,233,234,235,236,237,238,239,240,241,242,243,244,245,246,247,248,249,250,251,252,253,254
0.8215947728237964,0.871635131839785,0.9236099814623582,0.9701219275245558,0.9999999999999998,0.9736819645033823,0.9213018231366277,0.8673053424235964,0.813306566075737,0.7596026618129172,0.7118663934789355,0.6607409116888423,0.6083036013094492,0.5614404763912073,0.5093024484868749,0.46291023941341525,0.41733858004612756,0.3731039843965751,0.32675104414385414,0.27871144011072113,0.23120953238925912,0.1843026460151962,0.1624169876318604,0.13939789649463075,0.12728873429978016,0.134749430639441,0.15777848465613808,0.15908656366899,0.15948267042759534,0.16736109641686525,0.16438755813732175,0.16137557219826393,0.15943113281198817,0.16128918767266387,0.18035209434420651,0.20931504881115193,0.2480811904696445,0.28658237013193033,0.3251172407238838,0.3637937945018379,0.40318277820339277,0.44354847966912403,0.4820053154536317,0.5168552424832247,0.5303068214497366,0.5063876112285504,0.4682963737020249,0.4279669708617724,0.3856053246030917,0.34405633663338087,0.30003453042621464,0.2524865151127147,0.2107036707093488,0.1687377615654273,0.13252516705600592,0.09868513868739104,0.06974546687963024,0.05200790947934508,0.05877321147348136,0.06447114774953522,0.08865762208194194,0.13556089919229874,0.1845714374994567,0.23324259600798403,0.27999475318739786,0.33242694787950744,0.3803717712871788,0.43122979051542165,0.4851032491836935,0.5341941364896499,0.5838285255959985,0.6377546200641231,0.6911737519821768,0.7381790708320926,0.7903134407872294,0.8440206127250092,0.8916682618697604,0.9313222286127341,0.9212763536945767,0.8776692567233149,0.8258528352563614,0.7718868852441683,0.7209258549887319,0.6730601236166225,0.619318089957297,0.5673082467884996,0.5202223163796593,0.46676696676320706,0.4150185091078096,0.37238238481828767,0.3277330578627775,0.28027635397581885,0.2336031445574771,0.1836526338005453,0.15016912165983598,0.1355419362246435,0.11271177374161523,0.11678116478365586,0.13281972642244955,0.14156536792819874,0.13877243888406676,0.14519499324147667,0.1456499108229521,0.1484857696214339,0.14112954632967645,0.1469473498344629,0.17415879348714758,0.20264501813586144,0.23811969494550467,0.27848557032571764,0.31651420937930763,0.3571970678137677,0.396115910791792,0.43460205838619803,0.47446950583837433,0.5048304854100536,0.501855426387271,0.4740302434199881,0.4367641766387016,0.3973313661002864,0.3557926057676266,0.31260485705472885,0.2694673633969371,0.2289252629523051,0.18768846433991682,0.14516025935158594,0.10843922772658088,0.07883726334586827,0.06256230071913271,0.0657931135777452,0.06680953309963855,0.09096932993316131,0.13162723375314744,0.17645597618272646,0.22441758328743933,0.27563149792199093,0.32311365237691003,0.37676077403977803,0.43075950111641026,0.48475693915050044,0.5376611240727234,0.5844496022515069,0.637312075872075,0.6910881175204773,0.7390654577046909,0.7898891399238692,0.8437654106847325,0.8926628936434178,0.929323803547524,0.919792705496411,0.8736023470671028,0.8259892747779733,0.7723085138248524,0.7192136003293845,0.6724203125417032,0.6197540231232119,0.5667825983518229,0.520014901093413,0.46748135562211623,0.42020993866067125,0.3778107244894484,0.3329071388625575,0.2797930209137034,0.2318875708720125,0.1855078177068723,0.1538582583701842,0.147665437513119,0.13519802633515532,0.1362747224695331,0.15355441174197648,0.17332345168082686,0.1905613306919718,0.19484165059958514,0.20050439071350135,0.19028833863793437,0.17220733058373194,0.16040191757707167,0.17123259434741045,0.20029552850906351,0.23480104183074424,0.2720731740136362,0.31006933321808283,0.34925709222634116,0.3939754444166552,0.43580973242047416,0.47430319683810507,0.5086191444785,0.5208395776484536,0.4979162430035773,0.457625257656628,0.4146367332268108,0.37309122417717666,0.3295007852363385,0.28571424859539607,0.2449634558986553,0.20226277806193083,0.15958334202590274,0.12087986849796573,0.08302516832582918,0.044575556719010034,0.02005678474720174,0.006273408665126379,0.0,0.01888882107429035,0.052225734950588576,0.09816542221244617,0.14442926593703076,0.1909464281799207,0.2431309459885711,0.28994793108752326,0.3426523455931598,0.39645755290766127,0.4447028548818923,0.495234672524024,0.5492013099312392,0.6031840701481752,0.6543622457564844,0.6953237268621935,0.7373877499587185,0.7899640367575331,0.8367974211916602,0.8893174398434265,0.930925444412624,0.9161021050139808,0.8696528202854965,0.8158955313137748,0.7654393487721196,0.7197404949800552,0.6800358705065082,0.6295284367563914,0.5827093898777551,0.5305317296402792,0.48374242390061895,0.4333632189878722,0.38932116378010995,0.3460232188036827,0.2997402875692272,0.2524680098574785,0.20063584165416648,0.15538737298489402,0.13420415602792435,0.12449170500707063,0.11880918977281474,0.13253176873789774,0.14775246564985012,0.15090592813247938,0.15554589961848064,0.16021780877545333,0.15198146475388064,0.15152691483752956,0.14609435459221842,0.15431351692013417,0.18349556298124625,0.2177247897707053,0.2513580898133967
0,1,2,3,4,5,6,7,8,9,10,11,12,13,14,15,16,17,18,19,20,21,22,23,24,25,26,27,28,29,30,31,32,33,34,35,36,37,38,39,40,41,42,43,44,45,46,47,48,49,50,51,52,53,54,55,56,57,58,59,60,61,62,63,64,65,66,67,68,69,70,71,72,73,74,75,76,77,78,79,80,81,82,83,84,85,86,87,88,89,90,91,92,93,94,95,96,97,98,99,100,101,102,103,104,105,106,107,108,109,110,111,112,113,114,115,116,117,118,119,120,121,122,123,124,125,126,127,128,129,130,131,132,133,134,135,136,137,138,139,140,141,142,143,144,145,146,147,148,149,150,151,152,153,154,155,156,157,158,159,160,161,162,163,164,165,166,167,168,169,170,171,172,173,174,175,176,177,178,179,180,181,182,183,184,185,186,187,188,189,190,191,192,193,194,195,196,197,198,199,200,201,202,203,204,205,206,207,208,209,210,211,212,213,214,215,216,217,218,219,220,221,222,223,224,225,226,227,228,229,230,231,232,233,234,235,236,237,238,239,240,241,242,243,244,245,246,247,248,249,250,251,252,253,254
0.8535591903165445,0.8312314288418454,0.8003659774621492,0.7740347357971613,0.7596574660325177,0.751671931404791,0.7647956233977635,0.7511411030036448,0.7623020665117144,0.770835103795863,0.7708659704877872,0.771887119191065,0.7802484595383934,0.7814022416992894,0.7953452476530463,0.8120000715517253,0.8217881546477015,0.8335000737592786,0.8335566591888184,0.835717820760427,0.8533503834610858,0.8536234086514116,0.8367756167895428,0.8477396675673643,0.8544342244029712,0.8505785663044363,0.8403500357197053,0.8540484751259663,0.8512167491334308,0.8347693954751456,0.8335555551288505,0.8335553467015107,0.8335553467015107,0.8335554564388734,0.8342849920368023,0.8498768633470197,0.8406349961129171,0.8335707446379241,0.8335563361280593,0.8356586734291187,0.8532670383701624,0.8544516898101175,0.8536316851654218,0.8248571055946532,0.7838966801924334,0.7390989025940051,0.6884103190542397,0.6374488995375027,0.5759878507347933,0.5232330233187601,0.4734316901656581,0.41197836121492637,0.3503541230798475,0.2887298849447695,0.22735531273158172,0.17947747716518325,0.12491089913355058,0.08356705217160165,0.08385106370480244,0.12663382303998016,0.1807839546992831,0.2290849875124117,0.29053272169872146,0.3521569598337999,0.41378119796887836,0.47540543610395725,0.537019251438315,0.5933102269515991,0.6398607620623427,0.7010058717234662,0.7626301098585446,0.8242542146885055,0.8850134424936189,0.9234551765721437,0.954075244834538,0.9587434232057754,0.9458137104412527,0.9528802460937,0.9392680992804001,0.9195758777114476,0.9163218426879247,0.8992647192662213,0.895513469833122,0.8789550878267578,0.8769149122808928,0.8938098958479106,0.8962543814962691,0.9014850337548235,0.9215832315231554,0.9376332109175451,0.949950863576273,0.9760601156430897,0.9835942505003663,1.0,0.9939184408494905,0.9661276939798982,0.9395509550113093,0.9031295383046962,0.8647180468841569,0.8411966635627328,0.8155468171687108,0.8082434658525632,0.7924633295014178,0.7933813399945899,0.8097250768015067,0.7960678211732457,0.7931058633332615,0.8065886572393719,0.7931686889294816,0.8030535655489217,0.8233803810534059,0.8312609580966339,0.8143872765988278,0.8222196634240491,0.8333035999545921,0.8198977049517486,0.8127078313082938,0.820617718159804,0.8333993648568763,0.8212798716484304,0.8197724453200865,0.8333292622876112,0.8352309750090536,0.8483816910809816,0.8344796779559589,0.8335554962094607,0.8335206365430565,0.8244678381857824,0.8123808819565186,0.7969548624799754,0.7767620976812961,0.7708584222723824,0.7637803498368774,0.7502058057398115,0.7529214154724286,0.7700271030168828,0.7653819997676847,0.7502723601317598,0.7499693018495557,0.749984289281795,0.7568628870254472,0.7595144973693837,0.7630277619035652,0.7493892203849177,0.699604623105659,0.6538619053854857,0.5967610317317282,0.5356140422011593,0.48900579837495295,0.43278288294547984,0.37347034234600684,0.3288220483719333,0.26883153540165994,0.21372352420952057,0.16621289280445062,0.10496394028360223,0.05743939076954119,0.04010528960495874,0.056852184850322285,0.10378470494848502,0.16523556729907485,0.22685951746563893,0.28687958008409575,0.33154675229040986,0.39083658327456616,0.45246024105366267,0.5140844791887411,0.5757087173238191,0.6373258278779224,0.6947640243121067,0.7393560715746794,0.7626689798125446,0.7360000298632596,0.7296605769082904,0.7479771405378899,0.7699994018897138,0.7699476749779013,0.7523799326871345,0.7499713022392709,0.7499692790182926,0.7499692790182926,0.7501864580243365,0.7633185968885501,0.7723174710264251,0.7905076195467964,0.8098157406933275,0.81776721261082,0.8454652140289372,0.8729343190750898,0.9039819505794409,0.9337506147688637,0.9217385480120046,0.8963295970657565,0.8708281786627894,0.8399401411394294,0.8092300253733353,0.7782489629384677,0.7391994189556819,0.7063909785503149,0.683395646514676,0.6558024136931944,0.6448983458938282,0.6301123204172341,0.6429915627971257,0.6456569643232442,0.6576377471358024,0.6779133379015363,0.6789017716059291,0.6773614194536335,0.6872428599223013,0.6909538417570724,0.7074510264295011,0.708176307778535,0.708674533645901,0.7242216420055221,0.7373712806296888,0.7653197970026953,0.7728249341217297,0.7902607762622376,0.7910138337153985,0.7760662543916403,0.7912058774504556,0.8102899886927766,0.8126582376408451,0.8126588297807062,0.8126588297807062,0.8126588297807062,0.8126588297807062,0.8126588297807062,0.8126588297807062,0.8126588297807062,0.8126453914675387,0.8063434076836815,0.7920235139490428,0.7941503369887264,0.8108192416655711,0.7942180046610701,0.7917631248890813,0.7864497197541236,0.7418289947482108,0.7001946169988091,0.6553219276107454,0.5981749217711805,0.5527810738747139,0.49220442221708804,0.4305803586307011,0.36895612049562176,0.307332456824589,0.24802596271418542,0.2033682296239907,0.1436117124449705,0.09577263879704612,0.04116820200429405,0.0,0.0047589930556584115
0,1,2,3,4,5,6,7,8,9,10,11,12,13,14,15,16,17,18,19,20,21,22,23,24,25,26,27,28,29,30,31,32,33,34,35,36,37,38,39,40,41,42,43,44,45,46,47,48,49,50,51,52,53,54,55,56,57,58,59,60,61,62,63,64,65,66,67,68,69,70,71,72,73,74,75,76,77,78,79,80,81,82,83,84,85,86,87,88,89,90,91,92,93,94,95,96,97,98,99,100,101,102,103,104,105,106,107,108,109,110,111,112,113,114,115,116,117,118,119,120,121,122,123,124,125,126,127,128,129,130,131,132,133,134,135,136,137,138,139,140,141,142,143,144,145,146,147,148,149,150,151,152,153,154,155,156,157,158,159,160,161,162,163,164,165,166,167,168,169,170,171,172,173,174,175,176,177,178,179,180,181,182,183,184,185,186,187,188,189,190,191,192,193,194,195,196,197,198,199,200,201,202,203,204,205,206,207,208,209,210,211,212,213,214,215,216,217,218,219,220,221,222,223,224,225,226,227,228,229,230,231,232,233,234,235,236,237,238,239,240,241,242,243,244,245,246,247,248,249,250,251,252,253,254
0.8535591903165445,0.8312314288418454,0.8003659774621492,0.7740347357971613,0.7596574660325177,0.751671931404791,0.7647956233977635,0.7511411030036448,0.7623020665117144,0.770835103795863,0.7708659704877872,0.771887119191065,0.7802484595383934,0.7814022416992894,0.7953452476530463,0.8120000715517253,0.8217881546477015,0.8335000737592786,0.8335566591888184,0.835717820760427,0.8533503834610858,0.8536234086514116,0.8367756167895428,0.8477396675673643,0.8544342244029712,0.8505785663044363,0.8403500357197053,0.8540484751259663,0.8512167491334308,0.8347693954751456,0.8335555551288505,0.8335553467015107,0.8335553467015107,0.8335554564388734,0.8342849920368023,0.8498768633470197,0.8406349961129171,0.8335707446379241,0.8335563361280593,0.8356586734291187,0.8532670383701624,0.8544516898101175,0.8536316851654218,0.8248571055946532,0.7838966801924334,0.7390989025940051,0.6884103190542397,0.6374488995375027,0.5759878507347933,0.5232330233187601,0.4734316901656581,0.41197836121492637,0.3503541230798475,0.2887298849447695,0.22735531273158172,0.17947747716518325,0.12491089913355058,0.08356705217160165,0.08385106370480244,0.12663382303998016,0.1807839546992831,0.2290849875124117,0.29053272169872146,0.3521569598337999,0.41378119796887836,0.47540543610395725,0.537019251438315,0.5933102269515991,0.6398607620623427,0.7010058717234662,0.7626301098585446,0.8242542146885055,0.8850134424936189,0.9234551765721437,0.954075244834538,0.9587434232057754,0.9458137104412527,0.9528802460937,0.9392680992804001,0.9195758777114476,0.9163218426879247,0.8992647192662213,0.895513469833122,0.8789550878267578,0.8769149122808928,0.8938098958479106,0.8962543814962691,0.9014850337548235,0.9215832315231554,0.9376332109175451,0.949950863576273,0.9760601156430897,0.9835942505003663,1.0,0.9939184408494905,0.9661276939798982,0.9395509550113093,0.9031295383046962,0.8647180468841569,0.8411966635627328,0.8155468171687108,0.8082434658525632,0.7924633295014178,0.7933813399945899,0.8097250768015067,0.7960678211732457,0.7931058633332615,0.8065886572393719,0.7931686889294816,0.8030535655489217,0.8233803810534059,0.8312609580966339,0.8143872765988278,0.8222196634240491,0.8333035999545921,0.8198977049517486,0.8127078313082938,0.820617718159804,0.8333993648568763,0.8212798716484304,0.8197724453200865,0.8333292622876112,0.8352309750090536,0.8483816910809816,0.8344796779559589,0.8335554962094607,0.8335206365430565,0.8244678381857824,0.8123808819565186,0.7969548624799754,0.7767620976812961,0.7708584222723824,0.7637803498368774,0.7502058057398115,0.7529214154724286,0.7700271030168828,0.7653819997676847,0.7502723601317598,0.7499693018495557,0.749984289281795,0.7568628870254472,0.7595144973693837,0.7630277619035652,0.7493892203849177,0.699604623105659,0.6538619053854857,0.5967610317317282,0.5356140422011593,0.48900579837495295,0.43278288294547984,0.37347034234600684,0.3288220483719333,0.26883153540165994,0.21372352420952057,0.16621289280445062,0.10496394028360223,0.05743939076954119,0.04010528960495874,0.056852184850322285,0.10378470494848502,0.16523556729907485,0.22685951746563893,0.28687958008409575,0.33154675229040986,0.39083658327456616,0.45246024105366267,0.5140844791887411,0.5757087173238191,0.6373258278779224,0.6947640243121067,0.7393560715746794,0.7626689798125446,0.7360000298632596,0.7296605769082904,0.7479771405378899,0.7699994018897138,0.7699476749779013,0.7523799326871345,0.7499713022392709,0.7499692790182926,0.7499692790182926,0.7501864580243365,0.7633185968885501,0.7723174710264251,0.7905076195467964,0.8098157406933275,0.81776721261082,0.8454652140289372,0.8729343190750898,0.9039819505794409,0.9337506147688637,0.9217385480120046,0.8963295970657565,0.8708281786627894,0.8399401411394294,0.8092300253733353,0.7782489629384677,0.7391994189556819,0.7063909785503149,0.683395646514676,0.6558024136931944,0.6448983458938282,0.6301123204172341,0.6429915627971257,0.6456569643232442,0.6576377471358024,0.6779133379015363,0.6789017716059291,0.6773614194536335,0.6872428599223013,0.6909538417570724,0.7074510264295011,0.708176307778535,0.708674533645901,0.7242216420055221,0.7373712806296888,0.7653197970026953,0.7728249341217297,0.7902607762622376,0.7910138337153985,0.7760662543916403,0.7912058774504556,0.8102899886927766,0.8126582376408451,0.8126588297807062,0.8126588297807062,0.8126588297807062,0.8126588297807062,0.8126588297807062,0.8126588297807062,0.8126588297807062,0.8126453914675387,0.8063434076836815,0.7920235139490428,0.7941503369887264,0.8108192416655711,0.7942180046610701,0.7917631248890813,0.7864497197541236,0.7418289947482108,0.7001946169988091,0.6553219276107454,0.5981749217711805,0.5527810738747139,0.49220442221708804,0.4305803586307011,0.36895612049562176,0.307332456824589,0.24802596271418542,0.2033682296239907,0.1436117124449705,0.09577263879704612,0.04116820200429405,0.0,0.0047589930556584115
0,1,2,3,4,5,6,7,8,9,10,11,12,13,14,15,16,17,18,19,20,21,22,23,24,25,26,27,28,29,30,31,32,33,34,35,36,37,38,39,40,41,42,43,44,45,46,47,48,49,50,51,52,53,54,55,56,57,58,59,60,61,62,63,64,65,66,67,68,69,70,71,72,73,74,75,76,77,78,79,80,81,82,83,84,85,86,87,88,89,90,91,92,93,94,95,96,97,98,99,100,101,102,103,104,105,106,107,108,109,110,111,112,113,114,115,116,117,118,119,120,121,122,123,124,125,126,127,128,129,130,131,132,133,134,135,136,137,138,139,140,141,142,143,144,145,146,147,148,149,150,151,152,153,154,155,156,157,158,159,160,161,162,163,164,165,166,167,168,169,170,171,172,173,174,175,176,177,178,179,180,181,182,183,184,185,186,187,188,189,190,191,192,193,194,195,196,197,198,199,200,201,202,203,204,205,206,207,208,209,210,211,212,213,214,215,216,217,218,219,220,221,222,223,224,225,226,227,228,229,230,231,232,233,234,235,236,237,238,239,240,241,242,243,244,245,246,247,248,249,250,251,252,253,254
0.0866208014409311,0.1136512581902338,0.1457976611391001,0.17821122584676763,0.19722051589024803,0.22180728514626225,0.22565918279211927,0.21668954905263305,0.21714663880851437,0.22051024643336525,0.23183015001111684,0.24823927745065277,0.27067701695904467,0.2955315913376768,0.32104996714956524,0.3359458659309629,0.32927079618029187,0.31235781888059266,0.2990398682904367,0.28965122123987475,0.27962537493093675,0.2585512831211565,0.24391469283028688,0.24913120238972586,0.2637627535843745,0.26701697311867245,0.2552842900379253,0.22208481502359567,0.18251733295168648,0.13833218190788177,0.09773027733976725,0.05595547648454047,0.05574787804644177,0.09590414901815958,0.13691323834146174,0.18315039772257213,0.22973306307072705,0.2763158508761545,0.32279223064976215,0.36499169943297516,0.4081186737739686,0.45465332750917886,0.5012361167712747,0.5478189060333705,0.5944016952954672,0.6409844845575632,0.6875431358748854,0.7314087498212529,0.7729250116218731,0.8149828884895731,0.8043200916903841,0.7587890925053302,0.7122066226487356,0.6656243165739364,0.6196035219261009,0.5790022310109071,0.5338644819205072,0.4872902811435056,0.442121761352428,0.40150961777281036,0.3566485086163522,0.31637533522866335,0.2786857261225357,0.2503475742015677,0.21806066218212083,0.1992551917526535,0.19458549198910102,0.19407997077366868,0.18824445709649207,0.18782107679148363,0.20118730665500162,0.2236024562258816,0.24920492675251427,0.2724399491956797,0.2878508608952892,0.2806777901404014,0.266410970716944,0.25420866578996804,0.24726858154393638,0.23175687839561654,0.20953424455294112,0.20478114925101476,0.21741649712974542,0.2358471990068398,0.23882949056102043,0.21817164329454686,0.17938004449403966,0.13701837362366787,0.09506858299923504,0.05185772876622785,0.013873570715334793,0.02099199446464417,0.05804846432941346,0.10315493529167519,0.14973354880634648,0.19631633806844273,0.24286463399958103,0.28628076985593376,0.32821311910137596,0.3746538132447981,0.42123660250689454,0.467819391768991,0.5144021810310859,0.5609849702931824,0.6075677595552782,0.6541454783103842,0.6988975689984125,0.7155851128641593,0.67752043243853,0.6335907230396067,0.5921383552110067,0.545781264239368,0.49919852906823237,0.4528147587938751,0.4113433859041151,0.3674734183753412,0.3244750955529785,0.2834678282586989,0.24673887074268164,0.21700434275340452,0.20351554938059757,0.20173031005943276,0.19429332467764837,0.18718201343710494,0.1883014302545294,0.20482255700054264,0.2284023797565129,0.2549726024494934,0.2827587040165658,0.3012413666262601,0.29557077211888916,0.2837407943865262,0.2762172357198438,0.27286724814613583,0.2590619169725257,0.23513294370306936,0.22031977278935067,0.22930129835598945,0.24692768275019494,0.2518536881391147,0.2412158148099366,0.20654301713185785,0.1652227628320535,0.12465278979379701,0.07974865031125833,0.03691505320653321,0.008470579833252945,0.029481440089245137,0.07524925521052817,0.12065088603554552,0.1584871700325643,0.19255278149235577,0.23760372419962494,0.2841841431166632,0.33075626485725196,0.3744320448112797,0.40934475131476544,0.454529991381291,0.501110608058571,0.5473892943226271,0.5884435259769585,0.6328774559997778,0.6794482008594414,0.7260309901215378,0.7726137793836341,0.8191965686457297,0.8657793579078259,0.9123621471699213,0.9589331981964702,1.0,0.986123424359417,0.940292898149899,0.8937102228018563,0.8471274335397596,0.8005477004193342,0.7552159228865183,0.7146921961147201,0.6687891901910537,0.6222071691013076,0.5756243798392118,0.5290827851327204,0.485789487058476,0.44375274516486773,0.3973068728347451,0.3534098614629435,0.3122586717516005,0.2721752101829289,0.2364549199007735,0.2102578658396741,0.19746391029431543,0.19810026605416065,0.19636740776326,0.1946274873819165,0.19618368759799965,0.2099230908534384,0.23318968682817998,0.260838338056945,0.2895661300494361,0.301230173351295,0.28846845859592873,0.2752326825770286,0.26407616796716327,0.2548728607993156,0.24872160221602901,0.23016760680764903,0.21334513724410087,0.21819655218076517,0.23723832970235348,0.24942295761227884,0.24213607677302784,0.21118054037063017,0.1714254857281441,0.12732311013780118,0.08650430307902823,0.041145669681912134,0.0036131349498726983,0.0,0.03628038629758845,0.08261800886318404,0.12919297023301168,0.17396024461860282,0.21479805148199493,0.2609556207721635,0.3075382332918044,0.35412102255390177,0.4007038118159969,0.4472866010780927,0.49386939034019006,0.5404521796022854,0.5870349242903221,0.6333613764196784,0.6746036264513486,0.7082259207909201,0.6886081506125687,0.6434897842850156,0.5969095170592418,0.550326727797146,0.503889226626568,0.46198272652256733,0.4185385858814421,0.3724994800715149,0.33192293649582827,0.2909240230525887,0.2540618862394719,0.223027807075185,0.2042173600112862,0.2024687723836438,0.19841320584379374,0.19462187296899836,0.19687279972194482,0.21223525794714027,0.23502339530365712,0.25904147874910355,0.2804072345836499,0.29008961560047
0,1,2,3,4,5,6,7,8,9,10,11,12,13,14,15,16,17,18,19,20,21,22,23,24,25,26,27,28,29,30,31,32,33,34,35,36,37,38,39,40,41,42,43,44,45,46,47,48,49,50,51,52,53,54,55,56,57,58,59,60,61,62,63,64,65,66,67,68,69,70,71,72,73,74,75,76,77,78,79,80,81,82,83,84,85,86,87,88,89,90,91,92,93,94,95,96,97,98,99,100,101,102,103,104,105,106,107,108,109,110,111,112,113,114,115,116,117,118,119,120,121,122,123,124,125,126,127,128,129,130,131,132,133,134,135,136,137,138,139,140,141,142,143,144,145,146,147,148,149,150,151,152,153,154,155,156,157,158,159,160,161,162,163,164,165,166,167,168,169,170,171,172,173,174,175,176,177,178,179,180,181,182,183,184,185,186,187,188,189,190,191,192,193,194,195,196,197,198,199,200,201,202,203,204,205,206,207,208,209,210,211,212,213,214,215,216,217,218,219,220,221,222,223,224,225,226,227,228,229,230,231,232,233,234,235,236,237,238,239,240,241,242,243,244,245,246,247,248,249,250,251,252,253,254
0.0866208014409311,0.1136512581902338,0.1457976611391001,0.17821122584676763,0.19722051589024803,0.22180728514626225,0.22565918279211927,0.21668954905263305,0.21714663880851437,0.22051024643336525,0.23183015001111684,0.24823927745065277,0.27067701695904467,0.2955315913376768,0.32104996714956524,0.3359458659309629,0.32927079618029187,0.31235781888059266,0.2990398682904367,0.28965122123987475,0.27962537493093675,0.2585512831211565,0.24391469283028688,0.24913120238972586,0.2637627535843745,0.26701697311867245,0.2552842900379253,0.22208481502359567,0.18251733295168648,0.13833218190788177,0.09773027733976725,0.05595547648454047,0.05574787804644177,0.09590414901815958,0.13691323834146174,0.18315039772257213,0.22973306307072705,0.2763158508761545,0.32279223064976215,0.36499169943297516,0.4081186737739686,0.45465332750917886,0.5012361167712747,0.5478189060333705,0.5944016952954672,0.6409844845575632,0.6875431358748854,0.7314087498212529,0.7729250116218731,0.8149828884895731,0.8043200916903841,0.7587890925053302,0.7122066226487356,0.6656243165739364,0.6196035219261009,0.5790022310109071,0.5338644819205072,0.4872902811435056,0.442121761352428,0.40150961777281036,0.3566485086163522,0.31637533522866335,0.2786857261225357,0.2503475742015677,0.21806066218212083,0.1992551917526535,0.19458549198910102,0.19407997077366868,0.18824445709649207,0.18782107679148363,0.20118730665500162,0.2236024562258816,0.24920492675251427,0.2724399491956797,0.2878508608952892,0.2806777901404014,0.266410970716944,0.25420866578996804,0.24726858154393638,0.23175687839561654,0.20953424455294112,0.20478114925101476,0.21741649712974542,0.2358471990068398,0.23882949056102043,0.21817164329454686,0.17938004449403966,0.13701837362366787,0.09506858299923504,0.05185772876622785,0.013873570715334793,0.02099199446464417,0.05804846432941346,0.10315493529167519,0.14973354880634648,0.19631633806844273,0.24286463399958103,0.28628076985593376,0.32821311910137596,0.3746538132447981,0.42123660250689454,0.467819391768991,0.5144021810310859,0.5609849702931824,0.6075677595552782,0.6541454783103842,0.6988975689984125,0.7155851128641593,0.67752043243853,0.6335907230396067,0.5921383552110067,0.545781264239368,0.49919852906823237,0.4528147587938751,0.4113433859041151,0.3674734183753412,0.3244750955529785,0.2834678282586989,0.24673887074268164,0.21700434275340452,0.20351554938059757,0.20173031005943276,0.19429332467764837,0.18718201343710494,0.1883014302545294,0.20482255700054264,0.2284023797565129,0.2549726024494934,0.2827587040165658,0.3012413666262601,0.29557077211888916,0.2837407943865262,0.2762172357198438,0.27286724814613583,0.2590619169725257,0.23513294370306936,0.22031977278935067,0.22930129835598945,0.24692768275019494,0.2518536881391147,0.2412158148099366,0.20654301713185785,0.1652227628320535,0.12465278979379701,0.07974865031125833,0.03691505320653321,0.008470579833252945,0.029481440089245137,0.07524925521052817,0.12065088603554552,0.1584871700325643,0.19255278149235577,0.23760372419962494,0.2841841431166632,0.33075626485725196,0.3744320448112797,0.40934475131476544,0.454529991381291,0.501110608058571,0.5473892943226271,0.5884435259769585,0.6328774559997778,0.6794482008594414,0.7260309901215378,0.7726137793836341,0.8191965686457297,0.8657793579078259,0.9123621471699213,0.9589331981964702,1.0,0.986123424359417,0.940292898149899,0.8937102228018563,0.8471274335397596,0.8005477004193342,0.7552159228865183,0.7146921961147201,0.6687891901910537,0.6222071691013076,0.5756243798392118,0.5290827851327204,0.485789487058476,0.44375274516486773,0.3973068728347451,0.3534098614629435,0.3122586717516005,0.2721752101829289,0.2364549199007735,0.2102578658396741,0.19746391029431543,0.19810026605416065,0.19636740776326,0.1946274873819165,0.19618368759799965,0.2099230908534384,0.23318968682817998,0.260838338056945,0.2895661300494361,0.301230173351295,0.28846845859592873,0.2752326825770286,0.26407616796716327,0.2548728607993156,0.24872160221602901,0.23016760680764903,0.21334513724410087,0.21819655218076517,0.23723832970235348,0.24942295761227884,0.24213607677302784,0.21118054037063017,0.1714254857281441,0.12732311013780118,0.08650430307902823,0.041145669681912134,0.0036131349498726983,0.0,0.03628038629758845,0.08261800886318404,0.12919297023301168,0.17396024461860282,0.21479805148199493,0.2609556207721635,0.3075382332918044,0.35412102255390177,0.4007038118159969,0.4472866010780927,0.49386939034019006,0.5404521796022854,0.5870349242903221,0.6333613764196784,0.6746036264513486,0.7082259207909201,0.6886081506125687,0.6434897842850156,0.5969095170592418,0.550326727797146,0.503889226626568,0.46198272652256733,0.4185385858814421,0.3724994800715149,0.33192293649582827,0.2909240230525887,0.2540618862394719,0.223027807075185,0.2042173600112862,0.2024687723836438,0.19841320584379374,0.19462187296899836,0.19687279972194482,0.21223525794714027,0.23502339530365712,0.25904147874910355,0.2804072345836499,0.29008961560047
0,1,2,3,4,5,6,7,8,9,10,11,12,13,14,15,16,17,18,19,20,21,22,23,24,25,26,27,28,29,30,31,32,33,34,35,36,37,38,39,40,41,42,43,44,45,46,47,48,49,50,51,52,53,54,55,56,57,58,59,60,61,62,63,64,65,66,67,68,69,70,71,72,73,74,75,76,77,78,79,80,81,82,83,84,85,86,87,88,89,90,91,92,93,94,95,96,97,98,99,100,101,102,103,104,105,106,107,108,109,110,111,112,113,114,115,116,117,118,119,120,121,122,123,124,125,126,127,128,129,130,131,132,133,134,135,136,137,138,139,140,141,142,143,144,145,146,147,148,149,150,151,152,153,154,155,156,157,158,159,160,161,162,163,164,165,166,167,168,169,170,171,172,173,174,175,176,177,178,179,180,181,182,183,184,185,186,187,188,189,190,191,192,193,194,195,196,197,198,199,200,201,202,203,204,205,206,207,208,209,210,211,212,213,214,215,216,217,218,219,220,221,222,223,224,225,226,227,228,229,230,231,232,233,234,235,236,237,238,239,240,241,242,243,244,245,246,247,248,249,250,251,252,253,254
0.1852892142107767,0.17498154653558262,0.1680470517732804,0.16410438719399822,0.16072552063440404,0.1598368543762292,0.17036522424879808,0.1831860780556398,0.1970975712145122,0.20874085734864845,0.22812733743829838,0.2511068812306092,0.27915751770840735,0.3126870154431174,0.34109053038857495,0.35579952876913445,0.34246025779148814,0.31479632649545386,0.2829952396349098,0.24924567754000182,0.20999939335074402,0.17348552998432165,0.13803671536244022,0.10319796049822005,0.0722596630255703,0.041244170369231004,0.013976614600799575,0.0,0.0014626968522222228,0.002627982356751879,0.008998378496917647,0.022701755920031763,0.050509096471373915,0.0839749615526102,0.1114484754497096,0.14984304688764638,0.18780455992326162,0.23117297620162414,0.27158512973323146,0.3105301954472506,0.35382797026370194,0.39180595075467317,0.43332876895183015,0.475607984505239,0.5130991851073456,0.5562320696296064,0.5975448239750161,0.6357055384043349,0.6791683739563807,0.7228982993895281,0.7666282676476521,0.8103582359057757,0.8540877319716749,0.8971888779906554,0.934209706013976,0.9577614136173354,0.9379897059367657,0.8960666004181166,0.8535111787359397,0.8161374043780969,0.7731433004707946,0.7295889416066395,0.6910404179919623,0.6501976903713245,0.60653793608987,0.5664441049017424,0.5272014707192476,0.483577017873807,0.44196756142005555,0.4040551109081485,0.36064316834672105,0.3174589926993865,0.2855794896287165,0.25349674920227083,0.21092503183496958,0.17537508228660226,0.16655681739311157,0.17336724553749372,0.16767149313104945,0.1551615736521379,0.1407372702655083,0.14843823495364772,0.1658121592493096,0.16775054174780846,0.17165286054008466,0.18019089181291936,0.18417548468196232,0.18343713239919945,0.17516312432048253,0.1644411984700802,0.1605643383334816,0.1649604950742154,0.17220704438842294,0.18577768476202272,0.20029495532510277,0.2158472953402384,0.23999821698787893,0.26898595644915413,0.29527756940238525,0.32384264970541143,0.35226641711357876,0.369816377368545,0.35753796647373903,0.32892318324584724,0.29770844241639915,0.26469296241449003,0.23272373114852263,0.20834852726631414,0.17328567419104246,0.13994931216869033,0.10609577809219295,0.07125160585822221,0.045128796826122475,0.02944293059687464,0.027355108063756184,0.032741963750756886,0.04146994339652066,0.053245195344014506,0.08310778946378239,0.1214525633851593,0.1587431996772921,0.20076173410855747,0.23838696966803052,0.28041993532039866,0.3208908683491689,0.3597769065158727,0.4033670191470282,0.44622370661414923,0.48355880323024847,0.5262924860418057,0.5692142344250619,0.6065681011217128,0.6491441730760785,0.6887407671950676,0.7284679687348004,0.7719417951971685,0.8104117074532378,0.8513525376272126,0.8950623434492029,0.9381805183168994,0.972847337895389,0.9775651821165716,0.9428821442383175,0.9044848493228097,0.8609605070733675,0.8172305511546434,0.7735005828965198,0.7298220711185646,0.6898542668759928,0.6504892743409079,0.6068583243158814,0.5653403198332394,0.5273557737690613,0.4839231773863115,0.4401960497894575,0.39778690726936206,0.36034000094252305,0.317271483550698,0.2747260914410514,0.23737915916120667,0.19899171231023294,0.18911092008056696,0.19181298759708598,0.1847787286988105,0.17520259084224543,0.1735929406730563,0.1856035619468599,0.19764626238936178,0.20370024815095666,0.20902627700303045,0.21429987912708381,0.21727114665133396,0.21727882444111946,0.21423169113698726,0.20281908522837377,0.19391391517604428,0.1891563784667205,0.18927589493419217,0.19220132602921103,0.1996080471807733,0.21465080458764296,0.23783904961063995,0.2629806303885718,0.2916558201774946,0.3185864934391236,0.3454519598896926,0.36066277712524886,0.34597788671945096,0.3193674694056392,0.287407526369049,0.254605365898219,0.22180136993742838,0.1890148918166188,0.15619230960136798,0.12077989285702384,0.08724006971505993,0.0622527678463225,0.05343609139400107,0.05787667925200024,0.05823977713252004,0.06069405483757806,0.07132528823987627,0.10211076583936407,0.13990141712869208,0.17751409427410314,0.21685015667574348,0.25642198911469793,0.29802163989695485,0.335912130242763,0.3792815243590688,0.4220595064583874,0.45941620236814806,0.5022076288672199,0.545818713844354,0.584723299637109,0.6251612365956503,0.6672309250378736,0.7048119797720109,0.7479844400257891,0.7876438752957564,0.827305784897604,0.8689881124925385,0.9003958882816778,0.9389686677814162,0.9671878491592796,1.0000000000000002,0.9994589984623088,0.9659307807339068,0.9239726107804136,0.8802483853235048,0.836518417065381,0.7927894555944905,0.7498972488169595,0.7125022632502538,0.6698634998847308,0.6264436183245099,0.5884046950314212,0.546931358890999,0.5032111372942418,0.45960936196916036,0.4206158452619695,0.3802558101175142,0.3365652025940644,0.2947271162125382,0.25699703769743465,0.21723911293198195,0.19834864293909837,0.2001671471582458,0.19943170803076615,0.1895421301958753,0.17882625805341035,0.1854676200323513,0.19177477492164008,0.18658490341544365,0.18424344378639157
0,1,2,3,4,5,6,7,8,9,10,11,12,13,14,15,16,17,18,19,20,21,22,23,24,25,26,27,28,29,30,31,32,33,34,35,36,37,38,39,40,41,42,43,44,45,46,47,48,49,50,51,52,53,54,55,56,57,58,59,60,61,62,63,64,65,66,67,68,69,70,71,72,73,74,75,76,77,78,79,80,81,82,83,84,85,86,87,88,89,90,91,92,93,94,95,96,97,98,99,100,101,102,103,104,105,106,107,108,109,110,111,112,113,114,115,116,117,118,119,120,121,122,123,124,125,126,127,128,129,130,131,132,133,134,135,136,137,138,139,140,141,142,143,144,145,146,147,148,149,150,151,152,153,154,155,156,157,158,159,160,161,162,163,164,165,166,167,168,169,170,171,172,173,174,175,176,177,178,179,180,181,182,183,184,185,186,187,188,189,190,191,192,193,194,195,196,197,198,199,200,201,202,203,204,205,206,207,208,209,210,211,212,213,214,215,216,217,218,219,220,221,222,223,224,225,226,227,228,229,230,231,232,233,234,235,236,237,238,239,240,241,242,243,244,245,246,247,248,249,250,251,252,253,254
0.8535591903165445,0.8312314288418454,0.8003659774621492,0.7740347357971613,0.7596574660325177,0.751671931404791,0.7647956233977635,0.7511411030036448,0.7623020665117144,0.770835103795863,0.7708659704877872,0.771887119191065,0.7802484595383934,0.7814022416992894,0.7953452476530463,0.8120000715517253,0.8217881546477015,0.8335000737592786,0.8335566591888184,0.835717820760427,0.8533503834610858,0.8536234086514116,0.8367756167895428,0.8477396675673643,0.8544342244029712,0.8505785663044363,0.8403500357197053,0.8540484751259663,0.8512167491334308,0.8347693954751456,0.8335555551288505,0.8335553467015107,0.8335553467015107,0.8335554564388734,0.8342849920368023,0.8498768633470197,0.8406349961129171,0.8335707446379241,0.8335563361280593,0.8356586734291187,0.8532670383701624,0.8544516898101175,0.8536316851654218,0.8248571055946532,0.7838966801924334,0.7390989025940051,0.6884103190542397,0.6374488995375027,0.5759878507347933,0.5232330233187601,0.4734316901656581,0.41197836121492637,0.3503541230798475,0.2887298849447695,0.22735531273158172,0.17947747716518325,0.12491089913355058,0.08356705217160165,0.08385106370480244,0.12663382303998016,0.1807839546992831,0.2290849875124117,0.29053272169872146,0.3521569598337999,0.41378119796887836,0.47540543610395725,0.537019251438315,0.5933102269515991,0.6398607620623427,0.7010058717234662,0.7626301098585446,0.8242542146885055,0.8850134424936189,0.9234551765721437,0.954075244834538,0.9587434232057754,0.9458137104412527,0.9528802460937,0.9392680992804001,0.9195758777114476,0.9163218426879247,0.8992647192662213,0.895513469833122,0.8789550878267578,0.8769149122808928,0.8938098958479106,0.8962543814962691,0.9014850337548235,0.9215832315231554,0.9376332109175451,0.949950863576273,0.9760601156430897,0.9835942505003663,1.0,0.9939184408494905,0.9661276939798982,0.9395509550113093,0.9031295383046962,0.8647180468841569,0.8411966635627328,0.8155468171687108,0.8082434658525632,0.7924633295014178,0.7933813399945899,0.8097250768015067,0.7960678211732457,0.7931058633332615,0.8065886572393719,0.7931686889294816,0.8030535655489217,0.8233803810534059,0.8312609580966339,0.8143872765988278,0.8222196634240491,0.8333035999545921,0.8198977049517486,0.8127078313082938,0.820617718159804,0.8333993648568763,0.8212798716484304,0.8197724453200865,0.8333292622876112,0.8352309750090536,0.8483816910809816,0.8344796779559589,0.8335554962094607,0.8335206365430565,0.8244678381857824,0.8123808819565186,0.7969548624799754,0.7767620976812961,0.7708584222723824,0.7637803498368774,0.7502058057398115,0.7529214154724286,0.7700271030168828,0.7653819997676847,0.7502723601317598,0.7499693018495557,0.749984289281795,0.7568628870254472,0.7595144973693837,0.7630277619035652,0.7493892203849177,0.699604623105659,0.6538619053854857,0.5967610317317282,0.5356140422011593,0.48900579837495295,0.43278288294547984,0.37347034234600684,0.3288220483719333,0.26883153540165994,0.21372352420952057,0.16621289280445062,0.10496394028360223,0.05743939076954119,0.04010528960495874,0.056852184850322285,0.10378470494848502,0.16523556729907485,0.22685951746563893,0.28687958008409575,0.33154675229040986,0.39083658327456616,0.45246024105366267,0.5140844791887411,0.5757087173238191,0.6373258278779224,0.6947640243121067,0.7393560715746794,0.7626689798125446,0.7360000298632596,0.7296605769082904,0.7479771405378899,0.7699994018897138,0.7699476749779013,0.7523799326871345,0.7499713022392709,0.7499692790182926,0.7499692790182926,0.7501864580243365,0.7633185968885501,0.7723174710264251,0.7905076195467964,0.8098157406933275,0.81776721261082,0.8454652140289372,0.8729343190750898,0.9039819505794409,0.9337506147688637,0.9217385480120046,0.8963295970657565,0.8708281786627894,0.8399401411394294,0.8092300253733353,0.7782489629384677,0.7391994189556819,0.7063909785503149,0.683395646514676,0.6558024136931944,0.6448983458938282,0.6301123204172341,0.6429915627971257,0.6456569643232442,0.6576377471358024,0.6779133379015363,0.6789017716059291,0.6773614194536335,0.6872428599223013,0.6909538417570724,0.7074510264295011,0.708176307778535,0.708674533645901,0.7242216420055221,0.7373712806296888,0.7653197970026953,0.7728249341217297,0.7902607762622376,0.7910138337153985,0.7760662543916403,0.7912058774504556,0.8102899886927766,0.8126582376408451,0.8126588297807062,0.8126588297807062,0.8126588297807062,0.8126588297807062,0.8126588297807062,0.8126588297807062,0.8126588297807062,0.8126453914675387,0.8063434076836815,0.7920235139490428,0.7941503369887264,0.8108192416655711,0.7942180046610701,0.7917631248890813,0.7864497197541236,0.7418289947482108,0.7001946169988091,0.6553219276107454,0.5981749217711805,0.5527810738747139,0.49220442221708804,0.4305803586307011,0.36895612049562176,0.307332456824589,0.24802596271418542,0.2033682296239907,0.1436117124449705,0.09577263879704612,0.04116820200429405,0.0,0.0047589930556584115
0,1,2,3,4,5,6,7,8,9,10,11,12,13,14,15,16,17,18,19,20,21,22,23,24,25,26,27,28,29,30,31,32,33,34,35,36,37,38,39,40,41,42,43,44,45,46,47,48,49,50,51,52,53,54,55,56,57,58,59,60,61,62,63,64,65,66,67,68,69,70,71,72,73,74,75,76,77,78,79,80,81,82,83,84,85,86,87,88,89,90,91,92,93,94,95,96,97,98,99,100,101,102,103,104,105,106,107,108,109,110,111,112,113,114,115,116,117,118,119,120,121,122,123,124,125,126,127,128,129,130,131,132,133,134,135,136,137,138,139,140,141,142,143,144,145,146,147,148,149,150,151,152,153,154,155,156,157,158,159,160,161,162,163,164,165,166,167,168,169,170,171,172,173,174,175,176,177,178,179,180,181,182,183,184,185,186,187,188,189,190,191,192,193,194,195,196,197,198,199,200,201,202,203,204,205,206,207,208,209,210,211,212,213,214,215,216,217,218,219,220,221,222,223,224,225,226,227,228,229,230,231,232,233,234,235,236,237,238,239,240,241,242,243,244,245,246,247,248,249,250,251,252,253,254
0.8535591903165445,0.8312314288418454,0.8003659774621492,0.7740347357971613,0.7596574660325177,0.751671931404791,0.7647956233977635,0.7511411030036448,0.7623020665117144,0.770835103795863,0.7708659704877872,0.771887119191065,0.7802484595383934,0.7814022416992894,0.7953452476530463,0.8120000715517253,0.8217881546477015,0.8335000737592786,0.8335566591888184,0.835717820760427,0.8533503834610858,0.8536234086514116,0.8367756167895428,0.8477396675673643,0.8544342244029712,0.8505785663044363,0.8403500357197053,0.8540484751259663,0.8512167491334308,0.8347693954751456,0.8335555551288505,0.8335553467015107,0.8335553467015107,0.8335554564388734,0.8342849920368023,0.8498768633470197,0.8406349961129171,0.8335707446379241,0.8335563361280593,0.8356586734291187,0.8532670383701624,0.8544516898101175,0.8536316851654218,0.8248571055946532,0.7838966801924334,0.7390989025940051,0.6884103190542397,0.6374488995375027,0.5759878507347933,0.5232330233187601,0.4734316901656581,0.41197836121492637,0.3503541230798475,0.2887298849447695,0.22735531273158172,0.17947747716518325,0.12491089913355058,0.08356705217160165,0.08385106370480244,0.12663382303998016,0.1807839546992831,0.2290849875124117,0.29053272169872146,0.3521569598337999,0.41378119796887836,0.47540543610395725,0.537019251438315,0.5933102269515991,0.6398607620623427,0.7010058717234662,0.7626301098585446,0.8242542146885055,0.8850134424936189,0.9234551765721437,0.954075244834538,0.9587434232057754,0.9458137104412527,0.9528802460937,0.9392680992804001,0.9195758777114476,0.9163218426879247,0.8992647192662213,0.895513469833122,0.8789550878267578,0.8769149122808928,0.8938098958479106,0.8962543814962691,0.9014850337548235,0.9215832315231554,0.9376332109175451,0.949950863576273,0.9760601156430897,0.9835942505003663,1.0,0.9939184408494905,0.9661276939798982,0.9395509550113093,0.9031295383046962,0.8647180468841569,0.8411966635627328,0.8155468171687108,0.8082434658525632,0.7924633295014178,0.7933813399945899,0.8097250768015067,0.7960678211732457,0.7931058633332615,0.8065886572393719,0.7931686889294816,0.8030535655489217,0.8233803810534059,0.8312609580966339,0.8143872765988278,0.8222196634240491,0.8333035999545921,0.8198977049517486,0.8127078313082938,0.820617718159804,0.8333993648568763,0.8212798716484304,0.8197724453200865,0.8333292622876112,0.8352309750090536,0.8483816910809816,0.8344796779559589,0.8335554962094607,0.8335206365430565,0.8244678381857824,0.8123808819565186,0.7969548624799754,0.7767620976812961,0.7708584222723824,0.7637803498368774,0.7502058057398115,0.7529214154724286,0.7700271030168828,0.7653819997676847,0.7502723601317598,0.7499693018495557,0.749984289281795,0.7568628870254472,0.7595144973693837,0.7630277619035652,0.7493892203849177,0.699604623105659,0.6538619053854857,0.5967610317317282,0.5356140422011593,0.48900579837495295,0.43278288294547984,0.37347034234600684,0.3288220483719333,0.26883153540165994,0.21372352420952057,0.16621289280445062,0.10496394028360223,0.05743939076954119,0.04010528960495874,0.056852184850322285,0.10378470494848502,0.16523556729907485,0.22685951746563893,0.28687958008409575,0.33154675229040986,0.39083658327456616,0.45246024105366267,0.5140844791887411,0.5757087173238191,0.6373258278779224,0.6947640243121067,0.7393560715746794,0.7626689798125446,0.7360000298632596,0.7296605769082904,0.7479771405378899,0.7699994018897138,0.7699476749779013,0.7523799326871345,0.7499713022392709,0.7499692790182926,0.7499692790182926,0.7501864580243365,0.7633185968885501,0.7723174710264251,0.7905076195467964,0.8098157406933275,0.81776721261082,0.8454652140289372,0.8729343190750898,0.9039819505794409,0.9337506147688637,0.9217385480120046,0.8963295970657565,0.8708281786627894,0.8399401411394294,0.8092300253733353,0.7782489629384677,0.7391994189556819,0.7063909785503149,0.683395646514676,0.6558024136931944,0.6448983458938282,0.6301123204172341,0.6429915627971257,0.6456569643232442,0.6576377471358024,0.6779133379015363,0.6789017716059291,0.6773614194536335,0.6872428599223013,0.6909538417570724,0.7074510264295011,0.708176307778535,0.708674533645901,0.7242216420055221,0.7373712806296888,0.7653197970026953,0.7728249341217297,0.7902607762622376,0.7910138337153985,0.7760662543916403,0.7912058774504556,0.8102899886927766,0.8126582376408451,0.8126588297807062,0.8126588297807062,0.8126588297807062,0.8126588297807062,0.8126588297807062,0.8126588297807062,0.8126588297807062,0.8126453914675387,0.8063434076836815,0.7920235139490428,0.7941503369887264,0.8108192416655711,0.7942180046610701,0.7917631248890813,0.7864497197541236,0.7418289947482108,0.7001946169988091,0.6553219276107454,0.5981749217711805,0.5527810738747139,0.49220442221708804,0.4305803586307011,0.36895612049562176,0.307332456824589,0.24802596271418542,0.2033682296239907,0.1436117124449705,0.09577263879704612,0.04116820200429405,0.0,0.0047589930556584115
0,1,2,3,4,5,6,7,8,9,10,11,12,13,14,15,16,17,18,19,20,21,22,23,24,25,26,27,28,29,30,31,32,33,34,35,36,37,38,39,40,41,42,43,44,45,46,47,48,49,50,51,52,53,54,55,56,57,58,59,60,61,62,63,64,65,66,67,68,69,70,71,72,73,74,75,76,77,78,79,80,81,82,83,84,85,86,87,88,89,90,91,92,93,94,95,96,97,98,99,100,101,102,103,104,105,106,107,108,109,110,111,112,113,114,115,116,117,118,119,120,121,122,123,124,125,126,127,128,129,130,131,132,133,134,135,136,137,138,139,140,141,142,143,144,145,146,147,148,149,150,151,152,153,154,155,156,157,158,159,160,161,162,163,164,165,166,167,168,169,170,171,172,173,174,175,176,177,178,179,180,181,182,183,184,185,186,187,188,189,190,191,192,193,194,195,196,197,198,199,200,201,202,203,204,205,206,207,208,209,210,211,212,213,214,215,216,217,218,219,220,221,222,223,224,225,226,227,228,229,230,231,232,233,234,235,236,237,238,239,240,241,242,243,244,245,246,247,248,249,250,251,252,253,254
0.8535591903165445,0.8312314288418454,0.8003659774621492,0.7740347357971613,0.7596574660325177,0.751671931404791,0.7647956233977635,0.7511411030036448,0.7623020665117144,0.770835103795863,0.7708659704877872,0.771887119191065,0.7802484595383934,0.7814022416992894,0.7953452476530463,0.8120000715517253,0.8217881546477015,0.8335000737592786,0.8335566591888184,0.835717820760427,0.8533503834610858,0.8536234086514116,0.8367756167895428,0.8477396675673643,0.8544342244029712,0.8505785663044363,0.8403500357197053,0.8540484751259663,0.8512167491334308,0.8347693954751456,0.8335555551288505,0.8335553467015107,0.8335553467015107,0.8335554564388734,0.8342849920368023,0.8498768633470197,0.8406349961129171,0.8335707446379241,0.8335563361280593,0.8356586734291187,0.8532670383701624,0.8544516898101175,0.8536316851654218,0.8248571055946532,0.7838966801924334,0.7390989025940051,0.6884103190542397,0.6374488995375027,0.5759878507347933,0.5232330233187601,0.4734316901656581,0.41197836121492637,0.3503541230798475,0.2887298849447695,0.22735531273158172,0.17947747716518325,0.12491089913355058,0.08356705217160165,0.08385106370480244,0.12663382303998016,0.1807839546992831,0.2290849875124117,0.29053272169872146,0.3521569598337999,0.41378119796887836,0.47540543610395725,0.537019251438315,0.5933102269515991,0.6398607620623427,0.7010058717234662,0.7626301098585446,0.8242542146885055,0.8850134424936189,0.9234551765721437,0.954075244834538,0.9587434232057754,0.9458137104412527,0.9528802460937,0.9392680992804001,0.9195758777114476,0.9163218426879247,0.8992647192662213,0.895513469833122,0.8789550878267578,0.8769149122808928,0.8938098958479106,0.8962543814962691,0.9014850337548235,0.9215832315231554,0.9376332109175451,0.949950863576273,0.9760601156430897,0.9835942505003663,1.0,0.9939184408494905,0.9661276939798982,0.9395509550113093,0.9031295383046962,0.8647180468841569,0.8411966635627328,0.8155468171687108,0.8082434658525632,0.7924633295014178,0.7933813399945899,0.8097250768015067,0.7960678211732457,0.7931058633332615,0.8065886572393719,0.7931686889294816,0.8030535655489217,0.8233803810534059,0.8312609580966339,0.8143872765988278,0.8222196634240491,0.8333035999545921,0.8198977049517486,0.8127078313082938,0.820617718159804,0.8333993648568763,0.8212798716484304,0.8197724453200865,0.8333292622876112,0.8352309750090536,0.8483816910809816,0.8344796779559589,0.8335554962094607,0.8335206365430565,0.8244678381857824,0.8123808819565186,0.7969548624799754,0.7767620976812961,0.7708584222723824,0.7637803498368774,0.7502058057398115,0.7529214154724286,0.7700271030168828,0.7653819997676847,0.7502723601317598,0.7499693018495557,0.749984289281795,0.7568628870254472,0.7595144973693837,0.7630277619035652,0.7493892203849177,0.699604623105659,0.6538619053854857,0.5967610317317282,0.5356140422011593,0.48900579837495295,0.43278288294547984,0.37347034234600684,0.3288220483719333,0.26883153540165994,0.21372352420952057,0.16621289280445062,0.10496394028360223,0.05743939076954119,0.04010528960495874,0.056852184850322285,0.10378470494848502,0.16523556729907485,0.22685951746563893,0.28687958008409575,0.33154675229040986,0.39083658327456616,0.45246024105366267,0.5140844791887411,0.5757087173238191,0.6373258278779224,0.6947640243121067,0.7393560715746794,0.7626689798125446,0.7360000298632596,0.7296605769082904,0.7479771405378899,0.7699994018897138,0.7699476749779013,0.7523799326871345,0.7499713022392709,0.7499692790182926,0.7499692790182926,0.7501864580243365,0.7633185968885501,0.7723174710264251,0.7905076195467964,0.8098157406933275,0.81776721261082,0.8454652140289372,0.8729343190750898,0.9039819505794409,0.9337506147688637,0.9217385480120046,0.8963295970657565,0.8708281786627894,0.8399401411394294,0.8092300253733353,0.7782489629384677,0.7391994189556819,0.7063909785503149,0.683395646514676,0.6558024136931944,0.6448983458938282,0.6301123204172341,0.6429915627971257,0.6456569643232442,0.6576377471358024,0.6779133379015363,0.6789017716059291,0.6773614194536335,0.6872428599223013,0.6909538417570724,0.7074510264295011,0.708176307778535,0.708674533645901,0.7242216420055221,0.7373712806296888,0.7653197970026953,0.7728249341217297,0.7902607762622376,0.7910138337153985,0.7760662543916403,0.7912058774504556,0.8102899886927766,0.8126582376408451,0.8126588297807062,0.8126588297807062,0.8126588297807062,0.8126588297807062,0.8126588297807062,0.8126588297807062,0.8126588297807062,0.8126453914675387,0.8063434076836815,0.7920235139490428,0.7941503369887264,0.8108192416655711,0.7942180046610701,0.7917631248890813,0.7864497197541236,0.7418289947482108,0.7001946169988091,0.6553219276107454,0.5981749217711805,0.5527810738747139,0.49220442221708804,0.4305803586307011,0.36895612049562176,0.307332456824589,0.24802596271418542,0.2033682296239907,0.1436117124449705,0.09577263879704612,0.04116820200429405,0.0,0.0047589930556584115
0,1,2,3,4,5,6,7,8,9,10,11,12,13,14,15,16,17,18,19,20,21,22,23,24,25,26,27,28,29,30,31,32,33,34,35,36,37,38,39,40,41,42,43,44,45,46,47,48,49,50,51,52,53,54,55,56,57,58,59,60,61,62,63,64,65,66,67,68,69,70,71,72,73,74,75,76,77,78,79,80,81,82,83,84,85,86,87,88,89,90,91,92,93,94,95,96,97,98,99,100,101,102,103,104,105,106,107,108,109,110,111,112,113,114,115,116,117,118,119,120,121,122,123,124,125,126,127,128,129,130,131,132,133,134,135,136,137,138,139,140,141,142,143,144,145,146,147,148,149,150,151,152,153,154,155,156,157,158,159,160,161,162,163,164,165,166,167,168,169,170,171,172,173,174,175,176,177,178,179,180,181,182,183,184,185,186,187,188,189,190,191,192,193,194,195,196,197,198,199,200,201,202,203,204,205,206,207,208,209,210,211,212,213,214,215,216,217,218,219,220,221,222,223,224,225,226,227,228,229,230,231,232,233,234,235,236,237,238,239,240,241,242,243,244,245,246,247,248,249,250,251,252,253,254
0.0859259568189068,0.11393998814204154,0.14377912178073382,0.1743247414624236,0.20665177033718019,0.23654408905358082,0.263942474837362,0.2865718683982168,0.30889737586539745,0.32844419345522535,0.3508948776753862,0.3698097588245344,0.3829412170887787,0.4016805959900154,0.4282933707972616,0.4616458306235729,0.49844593619283395,0.5415483219311945,0.5862990189990787,0.6310504844000489,0.6744542084476766,0.7115539768348838,0.7554651383658881,0.800214839065152,0.8434313230395043,0.8806007340334596,0.9245900937113545,0.963168223458112,0.9721605854561624,0.9397315607598511,0.9026824659192383,0.859486334126764,0.8147360576828486,0.7699830948981141,0.7252367828714681,0.6825841019763916,0.6451054489309731,0.6008176250133959,0.5560647050556389,0.5113302872126386,0.4702250171621307,0.44109324771490965,0.42371654247739143,0.43256544800122,0.43782518372018475,0.4444097104628162,0.444359000671944,0.4344567973068525,0.42011466908726347,0.4049131721659631,0.39247079962123155,0.3991114442811132,0.4147950174224362,0.42416748664434945,0.41819980041311733,0.41567436210460285,0.42306380899780227,0.4264949430807634,0.43513887124241357,0.4435899384281088,0.44466365277364517,0.4446647328968254,0.4439500209064,0.43261214349210664,0.40863806578062967,0.38280427383607174,0.3530900919816986,0.3216085217572844,0.28802550486138134,0.25445550925430815,0.22090191682585236,0.18722540278099475,0.1513875611057196,0.11551548312118731,0.07975781514700775,0.05115665333092534,0.05374051214679443,0.07774400034680085,0.1071979312095861,0.13703089305235716,0.16687070700898832,0.1977343701970411,0.22977491154950602,0.25840249433996254,0.281512522848157,0.30388996647487376,0.3258923525274251,0.34491701395294094,0.36545802213806433,0.3774664959643719,0.39611256223608704,0.4201452584775023,0.4522714239798218,0.488363090540161,0.5297205978290789,0.5669565093640492,0.6110890030833291,0.6558418024117678,0.7005947651965023,0.745347727981237,0.790098284179753,0.8333432612087339,0.8705020744147061,0.9145073323833421,0.9566313420547989,0.982403480780937,0.9690233733556504,0.933449189867146,0.8892983268885652,0.8445456239208253,0.7998588769917099,0.759896955113188,0.7200658806308062,0.6753801968630841,0.6306272340783503,0.5858742712936147,0.5411237144029053,0.49807786915468544,0.4609884923900942,0.4262376992023744,0.4120183187063817,0.42348606963747937,0.42714053872667224,0.43493277499364424,0.44133268047343766,0.4305309168756868,0.4132234567788453,0.4011234973640605,0.3885278798278906,0.3828899123259628,0.3952346661151591,0.40396303187681437,0.39900599954938976,0.40447771408994226,0.4067767989650479,0.41437894504211115,0.41671757489206085,0.4242818312090044,0.4249555739544444,0.4216095366956363,0.4141783920536213,0.4019676875282707,0.3808205917385752,0.350627795544425,0.32165123515330807,0.2906802328785487,0.2571614460804732,0.22341363134137748,0.1875276445223688,0.15166456509359905,0.11783108114628127,0.08206867230853176,0.048410428578524956,0.01510065753915324,0.0,0.023681529218936515,0.05151013526095194,0.07946243016489651,0.1108980902744856,0.141022557132499,0.17086107131677286,0.2022069469384884,0.23328683914711168,0.26013062176760027,0.2844939015115602,0.30688261211123846,0.3292592832021102,0.35219234577699354,0.38174026142584894,0.40100292137993554,0.41896121088147953,0.44355136301544595,0.4754803202606759,0.5126130865236522,0.5523374807426378,0.5920745722536576,0.6338365072763208,0.6719400278334331,0.7164263069848864,0.7610871233822629,0.8005803218149556,0.8408934976667917,0.8855916976396978,0.9303442778367694,0.9743119653639183,1.0,0.9855261606560108,0.9476722368757953,0.903006353563697,0.8583238682322709,0.8184926455066108,0.778535849703414,0.733840926505956,0.6890879637212208,0.6443350958696195,0.5999550118369843,0.5623068898388939,0.51991682488625,0.4755020381089532,0.4450977902246851,0.43466383680411336,0.4501094374854244,0.4577181901048606,0.4642374912384979,0.4695482221610501,0.46280520725748886,0.44198225592248863,0.42862435652323194,0.41539461961130075,0.40393266231503966,0.4171664663500301,0.4319598874532309,0.4348068193159984,0.4348185418597228,0.4348398003206002,0.43788013267460935,0.438338290642303,0.4444310420545361,0.4530021107692612,0.45450491680876137,0.4526092163377926,0.44389449544753323,0.4335880758519035,0.4168355924537508,0.38837613698066376,0.35854535330938564,0.32846605119784034,0.2952716996828719,0.25950787935942543,0.22584791779607505,0.19306437272602883,0.15946583400521686,0.12275119096657372,0.0891410413630791,0.0549702716403897,0.039257432031360784,0.06006065607369093,0.08866509722972538,0.12272218956483583,0.15569222305395125,0.1867283786624312,0.21397252731286875,0.2331165400042512,0.24287459395034428,0.26662250400373755,0.27125595430827465,0.27509412993735705,0.286830073621152,0.2873107836166797,0.2967018621993003,0.31837029130019134,0.34064144028755416,0.35960708423069465,0.37708451478006166,0.38875805567942723
0,1,2,3,4,5,6,7,8,9,10,11,12,13,14,15,16,17,18,19,20,21,22,23,24,25,26,27,28,29,30,31,32,33,34,35,36,37,38,39,40,41,42,43,44,45,46,47,48,49,50,51,52,53,54,55,56,57,58,59,60,61,62,63,64,65,66,67,68,69,70,71,72,73,74,75,76,77,78,79,80,81,82,83,84,85,86,87,88,89,90,91,92,93,94,95,96,97,98,99,100,101,102,103,104,105,106,107,108,109,110,111,112,113,114,115,116,117,118,119,120,121,122,123,124,125,126,127,128,129,130,131,132,133,134,135,136,137,138,139,140,141,142,143,144,145,146,147,148,149,150,151,152,153,154,155,156,157,158,159,160,161,162,163,164,165,166,167,168,169,170,171,172,173,174,175,176,177,178,179,180,181,182,183,184,185,186,187,188,189,190,191,192,193,194,195,196,197,198,199,200,201,202,203,204,205,206,207,208,209,210,211,212,213,214,215,216,217,218,219,220,221,222,223,224,225,226,227,228,229,230,231,232,233,234,235,236,237,238,239,240,241,242,243,244,245,246,247,248,249,250,251,252,253,254
0.0859259568189068,0.11393998814204154,0.14377912178073382,0.1743247414624236,0.20665177033718019,0.23654408905358082,0.263942474837362,0.2865718683982168,0.30889737586539745,0.32844419345522535,0.3508948776753862,0.3698097588245344,0.3829412170887787,0.4016805959900154,0.4282933707972616,0.4616458306235729,0.49844593619283395,0.5415483219311945,0.5862990189990787,0.6310504844000489,0.6744542084476766,0.7115539768348838,0.7554651383658881,0.800214839065152,0.8434313230395043,0.8806007340334596,0.9245900937113545,0.963168223458112,0.9721605854561624,0.9397315607598511,0.9026824659192383,0.859486334126764,0.8147360576828486,0.7699830948981141,0.7252367828714681,0.6825841019763916,0.6451054489309731,0.6008176250133959,0.5560647050556389,0.5113302872126386,0.4702250171621307,0.44109324771490965,0.42371654247739143,0.43256544800122,0.43782518372018475,0.4444097104628162,0.444359000671944,0.4344567973068525,0.42011466908726347,0.4049131721659631,0.39247079962123155,0.3991114442811132,0.4147950174224362,0.42416748664434945,0.41819980041311733,0.41567436210460285,0.42306380899780227,0.4264949430807634,0.43513887124241357,0.4435899384281088,0.44466365277364517,0.4446647328968254,0.4439500209064,0.43261214349210664,0.40863806578062967,0.38280427383607174,0.3530900919816986,0.3216085217572844,0.28802550486138134,0.25445550925430815,0.22090191682585236,0.18722540278099475,0.1513875611057196,0.11551548312118731,0.07975781514700775,0.05115665333092534,0.05374051214679443,0.07774400034680085,0.1071979312095861,0.13703089305235716,0.16687070700898832,0.1977343701970411,0.22977491154950602,0.25840249433996254,0.281512522848157,0.30388996647487376,0.3258923525274251,0.34491701395294094,0.36545802213806433,0.3774664959643719,0.39611256223608704,0.4201452584775023,0.4522714239798218,0.488363090540161,0.5297205978290789,0.5669565093640492,0.6110890030833291,0.6558418024117678,0.7005947651965023,0.745347727981237,0.790098284179753,0.8333432612087339,0.8705020744147061,0.9145073323833421,0.9566313420547989,0.982403480780937,0.9690233733556504,0.933449189867146,0.8892983268885652,0.8445456239208253,0.7998588769917099,0.759896955113188,0.7200658806308062,0.6753801968630841,0.6306272340783503,0.5858742712936147,0.5411237144029053,0.49807786915468544,0.4609884923900942,0.4262376992023744,0.4120183187063817,0.42348606963747937,0.42714053872667224,0.43493277499364424,0.44133268047343766,0.4305309168756868,0.4132234567788453,0.4011234973640605,0.3885278798278906,0.3828899123259628,0.3952346661151591,0.40396303187681437,0.39900599954938976,0.40447771408994226,0.4067767989650479,0.41437894504211115,0.41671757489206085,0.4242818312090044,0.4249555739544444,0.4216095366956363,0.4141783920536213,0.4019676875282707,0.3808205917385752,0.350627795544425,0.32165123515330807,0.2906802328785487,0.2571614460804732,0.22341363134137748,0.1875276445223688,0.15166456509359905,0.11783108114628127,0.08206867230853176,0.048410428578524956,0.01510065753915324,0.0,0.023681529218936515,0.05151013526095194,0.07946243016489651,0.1108980902744856,0.141022557132499,0.17086107131677286,0.2022069469384884,0.23328683914711168,0.26013062176760027,0.2844939015115602,0.30688261211123846,0.3292592832021102,0.35219234577699354,0.38174026142584894,0.40100292137993554,0.41896121088147953,0.44355136301544595,0.4754803202606759,0.5126130865236522,0.5523374807426378,0.5920745722536576,0.6338365072763208,0.6719400278334331,0.7164263069848864,0.7610871233822629,0.8005803218149556,0.8408934976667917,0.8855916976396978,0.9303442778367694,0.9743119653639183,1.0,0.9855261606560108,0.9476722368757953,0.903006353563697,0.8583238682322709,0.8184926455066108,0.778535849703414,0.733840926505956,0.6890879637212208,0.6443350958696195,0.5999550118369843,0.5623068898388939,0.51991682488625,0.4755020381089532,0.4450977902246851,0.43466383680411336,0.4501094374854244,0.4577181901048606,0.4642374912384979,0.4695482221610501,0.46280520725748886,0.44198225592248863,0.42862435652323194,0.41539461961130075,0.40393266231503966,0.4171664663500301,0.4319598874532309,0.4348068193159984,0.4348185418597228,0.4348398003206002,0.43788013267460935,0.438338290642303,0.4444310420545361,0.4530021107692612,0.45450491680876137,0.4526092163377926,0.44389449544753323,0.4335880758519035,0.4168355924537508,0.38837613698066376,0.35854535330938564,0.32846605119784034,0.2952716996828719,0.25950787935942543,0.22584791779607505,0.19306437272602883,0.15946583400521686,0.12275119096657372,0.0891410413630791,0.0549702716403897,0.039257432031360784,0.06006065607369093,0.08866509722972538,0.12272218956483583,0.15569222305395125,0.1867283786624312,0.21397252731286875,0.2331165400042512,0.24287459395034428,0.26662250400373755,0.27125595430827465,0.27509412993735705,0.286830073621152,0.2873107836166797,0.2967018621993003,0.31837029130019134,0.34064144028755416,0.35960708423069465,0.37708451478006166,0.38875805567942723
0,1,2,3,4,5,6,7,8,9,10,11,12,13,14,15,16,17,18,19,20,21,22,23,24,25,26,27,28,29,30,31,32,33,34,35,36,37,38,39,40,41,42,43,44,45,46,47,48,49,50,51,52,53,54,55,56,57,58,59,60,61,62,63,64,65,66,67,68,69,70,71,72,73,74,75,76,77,78,79,80,81,82,83,84,85,86,87,88,89,90,91,92,93,94,95,96,97,98,99,100,101,102,103,104,105,106,107,108,109,110,111,112,113,114,115,116,117,118,119,120,121,122,123,124,125,126,127,128,129,130,131,132,133,134,135,136,137,138,139,140,141,142,143,144,145,146,147,148,149,150,151,152,153,154,155,156,157,158,159,160,161,162,163,164,165,166,167,168,169,170,171,172,173,174,175,176,177,178,179,180,181,182,183,184,185,186,187,188,189,190,191,192,193,194,195,196,197,198,199,200,201,202,203,204,205,206,207,208,209,210,211,212,213,214,215,216,217,218,219,220,221,222,223,224,225,226,227,228,229,230,231,232,233,234,235,236,237,238,239,240,241,242,243,244,245,246,247,248,249,250,251,252,253,254
0.23270689562815172,0.23392986872114152,0.2339379747062995,0.2339379747062995,0.23393718589318468,0.23326055044346172,0.22801206177158706,0.22408781993564864,0.21802333401343632,0.2141032277659829,0.21617380375734307,0.21404999680488457,0.20770341585981322,0.20710691100877576,0.20216874106612504,0.19522665360787528,0.18652228892580824,0.1810621132596928,0.18130240827178512,0.18887876998963993,0.20006308628679736,0.21271296808157403,0.22046453061239335,0.21862133133064598,0.20828519237974508,0.19009676262685904,0.17124617925382268,0.1497863201363303,0.12743712509435423,0.10526737269972242,0.08104775028937683,0.059040212539629544,0.03807343741372737,0.01597766888912422,0.0,0.004985576921073265,0.02026146956608532,0.038210347698231284,0.05758114785744095,0.07697413079560855,0.09747276653980219,0.11671279971719506,0.13242997537959367,0.14635062367835383,0.1568610510893338,0.1658849628824417,0.1708584538992206,0.1782240548412064,0.18293366627199537,0.18392070068466482,0.18942520488603654,0.20825001079282268,0.23261499811675712,0.25920507899262946,0.2847446870919228,0.3145413007396367,0.34485479046832057,0.3698926866408232,0.3905414347240175,0.417679171117894,0.44841954935315487,0.47822828424508135,0.49726864574050933,0.5209627684106986,0.5515359990633502,0.5823011430732807,0.6130662920964471,0.6438022956154881,0.6715721160093955,0.6987731636259755,0.7294784873408859,0.7602436363640523,0.7910081102714557,0.8208683976930145,0.84647847180725,0.876656245656094,0.9074209806316578,0.9381768665369439,0.9668943490624216,0.9921045238407502,1.0,0.9788981272378252,0.9488752140087777,0.918110566309198,0.8873859162322655,0.8596747415975805,0.8324056883038029,0.8016983710647592,0.770933222041593,0.7401680730184266,0.709408264554158,0.6801474434782995,0.6542293983742165,0.6237558777739878,0.5929907287508214,0.562225579727655,0.5314604307044883,0.5006953969857468,0.4703175338037846,0.4465269236615279,0.4269651381586701,0.39757816240644006,0.36681473911016993,0.33604959008700375,0.30528444106383734,0.27451929204067094,0.24375419816309907,0.21322299838066505,0.1872039959823859,0.1587927927625199,0.15032629689139498,0.17558771402688111,0.201410379326864,0.22386323844500233,0.22798866432433695,0.23321201795797109,0.23392809950558346,0.2320573752729298,0.22742009002696761,0.2225563939499564,0.21141554379182548,0.20778713055074705,0.21272692509119806,0.21399057803490829,0.21399277216161972,0.21399277216161972,0.21399277216161972,0.21399268693661,0.21369181507061463,0.20880565948007668,0.20630875453815167,0.20114486258825193,0.19828137880544072,0.19416110043244483,0.1938239931443153,0.18913599952160598,0.1873089338225744,0.18202575475052485,0.17518099040446145,0.17835547854772793,0.18246880729382808,0.1920733378879873,0.20481619101388282,0.22192163567045808,0.23382998379072428,0.23904252148982574,0.23085786810594944,0.21777595675469597,0.19763426179661314,0.1784322793841091,0.15799751187904354,0.13622222149887198,0.11322045047670404,0.09163229314201682,0.06939252490376946,0.0488219708086155,0.03026173987507308,0.02624919253246316,0.04412215317036505,0.060747855093363445,0.07887096089611534,0.09786711376627466,0.11561619573288584,0.13769872516961978,0.1565561534347235,0.16921969092503142,0.181498336436396,0.19213068785058884,0.19929725348905136,0.2006922031223619,0.2006578334042397,0.1982463419660343,0.2046104160745843,0.22406598684617118,0.2474490091411501,0.27471490630235684,0.30092105770472743,0.3314818620416893,0.3604924528834341,0.3865889597534047,0.4171340500521461,0.44789915729834684,0.47865826737437556,0.5075100050658088,0.5337419722223709,0.5643113709246506,0.595076501565952,0.6257403605437193,0.6504235090112593,0.6699843018183347,0.6982051017533006,0.7289570441371038,0.7597221931602702,0.7903544701967109,0.8167899695323129,0.8453808728048127,0.876134388404709,0.9068995374278754,0.9376646864510418,0.9684050650084972,0.995290239429935,0.9988146700500249,0.9792976007839331,0.9493966037380444,0.918633735239877,0.8889585493918186,0.8633062029624086,0.8329847560779589,0.8022198142685417,0.7714546652453753,0.7406982279584486,0.7117795266540319,0.6856111661821203,0.6550424700009356,0.6242773209777694,0.593512171954603,0.5627470229314366,0.5319818739082702,0.5012256613665,0.4723321752953076,0.4461447198837456,0.4155696786638323,0.384804529640665,0.3540393806174995,0.32327423159433244,0.2925090825711667,0.26174393354799963,0.2310050429937882,0.20299768408914387,0.1813648436276809,0.15898630420331283,0.1501331854379182,0.17534593588202552,0.20371814168070146,0.2282764453289523,0.24525215043895754,0.2494472889877941,0.2537325076071042,0.2535520840716716,0.24608179958269494,0.24022688759888022,0.23137074039475158,0.2176297669797962,0.21743284810965258,0.22643092964844036,0.22812999784983123,0.2315060598818206,0.22612051263730737,0.22390483412143447,0.22557241377400294,0.2195881686752661,0.21503731513979485,0.21829148743283566,0.2105548499236809,0.20442503470518525
0,1,2,3,4,5,6,7,8,9,10,11,12,13,14,15,16,17,18,19,20,21,22,23,24,25,26,27,28,29,30,31,32,33,34,35,36,37,38,39,40,41,42,43,44,45,46,47,48,49,50,51,52,53,54,55,56,57,58,59,60,61,62,63,64,65,66,67,68,69,70,71,72,73,74,75,76,77,78,79,80,81,82,83,84,85,86,87,88,89,90,91,92,93,94,95,96,97,98,99,100,101,102,103,104,105,106,107,108,109,110,111,112,113,114,115,116,117,118,119,120,121,122,123,124,125,126,127,128,129,130,131,132,133,134,135,136,137,138,139,140,141,142,143,144,145,146,147,148,149,150,151,152,153,154,155,156,157,158,159,160,161,162,163,164,165,166,167,168,169,170,171,172,173,174,175,176,177,178,179,180,181,182,183,184,185,186,187,188,189,190,191,192,193,194,195,196,197,198,199,200,201,202,203,204,205,206,207,208,209,210,211,212,213,214,215,216,217,218,219,220,221,222,223,224,225,226,227,228,229,230,231,232,233,234,235,236,237,238,239,240,241,242,243,244,245,246,247,248,249,250,251,252,253,254
