0,1,2,3,4,5,6,7,8,9,10,11,12,13,14,15,16,17,18,19,20,21,22,23,24,25,26,27,28,29,30,31,32,33,34,35,36,37,38,39,40,41,42,43,44,45,46,47,48,49,50,51,52,53,54,55,56,57,58,59,60,61,62,63,64,65,66,67,68,69,70,71,72,73,74,75,76,77,78,79,80,81,82,83,84,85,86,87,88,89,90,91,92,93,94,95,96,97,98,99,100,101,102,103,104,105,106,107,108,109,110,111,112,113,114,115,116,117,118,119,120,121,122,123,124,125,126,127,128,129,130,131,132,133,134,135,136,137,138,139,140,141,142,143,144,145,146,147,148,149,150,151,152,153,154,155,156,157,158,159,160,161,162,163,164,165,166,167,168,169,170,171,172,173,174,175,176,177,178,179,180,181,182,183,184,185,186,187,188,189,190,191,192,193,194,195,196,197,198,199,200,201,202,203,204,205,206,207,208,209,210,211,212,213,214,215,216,217,218,219,220,221,222,223,224,225,226,227,228,229,230,231,232,233,234,235,236,237,238,239,240,241,242,243,244,245,246,247,248,249,250,251,252,253,254
0.9837280264510497,0.9843427065711228,0.9383978890824942,0.8537959765132055,0.754319512647772,0.6521436446054534,0.5473118987843919,0.4808726495817033,0.5402731154818674,0.6421749518538606,0.7403328156112863,0.8391883163003677,0.9213179804033587,0.9399675812514192,0.9133589620771596,0.8932797671561692,0.920314624733495,0.9261318578662419,0.9165218811957996,0.8935369443527408,0.8502543133775227,0.7891875695898536,0.7221595832184604,0.7226955180202557,0.7888810348022561,0.854413441009761,0.9074396054054525,0.9475231089415768,0.957780609596081,0.9355545754616721,0.8584840829290927,0.7581855300102749,0.658395983779027,0.5527735175247055,0.44849955320362156,0.3754567503526174,0.43217895240844206,0.5328694253020019,0.6342509176879514,0.7327087813867952,0.8287931555743149,0.9134421991816448,0.9410695531919089,0.9182636215596882,0.8930250336322552,0.9348179217542838,0.9537090157990693,0.9405304932608853,0.9296112850319822,0.8952614957725666,0.8423454732935303,0.7764218830873124,0.754539844381015,0.8132544067437377,0.8812166258882612,0.9370327297940184,0.9793780232874032,0.9975361017882083,0.9823022722971118,0.9184562088235417,0.8232282037922887,0.7241977098705019,0.6289345547052227,0.5376821117778687,0.46064438908936634,0.5099916468941459,0.6138896703754142,0.7128406427609189,0.8098715288562561,0.9035166887787327,0.954083618863347,0.9371829894626427,0.8884058257227163,0.8848147711671746,0.924716120262655,0.9443890978037355,0.9436624869917725,0.9187963947347964,0.8789705602478197,0.8205184195586543,0.7549599755730776,0.748813907520822,0.8154559791021208,0.8843406908350515,0.9407006707603787,0.9827869639527373,1.0,0.9837213293046565,0.9158284331358024,0.8222064824285684,0.7237569512984783,0.6283649782042435,0.5346531675683501,0.4699727834900176,0.5317566810963248,0.6345421670390654,0.7340161237158038,0.8329163562120805,0.9201810660892624,0.9424427532315232,0.9159208411989368,0.8811329280674014,0.911147791163941,0.9348085607979322,0.9323845927709777,0.9131084372497957,0.8771874743049064,0.8239008807663484,0.7577880217875592,0.7378623921449683,0.7578295273290874,0.721361608344776,0.6398886220747755,0.5723278274371313,0.6020872570207905,0.6764553136898313,0.738347622225275,0.8057904399728066,0.8559377039799181,0.8885779306083834,0.9004251244940171,0.8995506777821629,0.8641729298800294,0.8269125178267354,0.8626774099391137,0.9068970716845985,0.8861404215816255,0.798750838564138,0.7003276503406464,0.599998574507707,0.4970258388607123,0.3893874341378638,0.28180532784413237,0.17953141931537364,0.07782322508135064,0.0,0.03298975866199627,0.13068830471368975,0.23162063826629153,0.33833737741055336,0.4386644789510519,0.5435875808700958,0.6495088514252889,0.7492718845072075,0.8513831910028236,0.9371204512700018,0.9705879796952357,0.9496043257159439,0.9039441283486442,0.8431610236167262,0.7743196040194524,0.7079712503450108,0.6982673218008477,0.757013217454849,0.8233056500200138,0.8720001368399202,0.9067491805732011,0.917713745795006,0.8971521532161681,0.8547457799545433,0.8261363724228359,0.873328944092201,0.9192268419183542,0.893288945475978,0.8051164320970357,0.7080405050026368,0.6023841211605101,0.49471794169687344,0.3910376628206549,0.28975839967159245,0.1846129923371438,0.08525661557528341,0.007636138002821702,0.04535955640158751,0.14661496116337358,0.2464272173564126,0.35233204434433274,0.457983326163367,0.5579140848391826,0.6637367578777944,0.7636830815374331,0.8678947880693699,0.9463043597600609,0.9658778191812669,0.9422223819356836,0.8939716585167812,0.832973184276333,0.7661208091160239,0.7092335603799869,0.7244821030202273,0.7888874984970962,0.8483209281940833,0.8918744982543423,0.9063173216981071,0.9178853712444783,0.9110755650962727,0.8592344398256244,0.8408009857252872,0.8886307462325358,0.8982136634602895,0.8311290344441409,0.7358045525578161,0.631439540520194,0.5257801078579176,0.42588130530452917,0.3217468397845782,0.2215802705833343,0.11861785239623068,0.05906088226630013,0.11917819488785208,0.21771072143788728,0.32312860515955943,0.4229235515891785,0.5288027647955302,0.6309544389305304,0.7336925003561068,0.8397424434082306,0.9148794155725168,0.9268820167704284,0.8985530410296751,0.8457377242755189,0.7860843033843914,0.7173840871995723,0.6644712333822056,0.6894465613373626,0.7559861311883931,0.8179909728241586,0.8645747083503659,0.8891449390869006,0.8963966939106058,0.8722568261488266,0.8363855476066031,0.8719777139386555,0.9025602552627272,0.8584994677027085,0.7683220810869336,0.6695928458978402,0.5700373182256353,0.4645878996378283,0.35686237807438803,0.2502037807355384,0.15044791634618115,0.053974979640430854,0.03692899342322553,0.12405368612708312,0.223720202672832,0.3192039377745677,0.4050378032226698,0.4927064085335491,0.5977624660862819,0.7004948512109679,0.8008849225670378,0.8959373366645298,0.9521727236567707,0.9469065276539175
0,1,2,3,4,5,6,7,8,9,10,11,12,13,14,15,16,17,18,19,20,21,22,23,24,25,26,27,28,29,30,31,32,33,34,35,36,37,38,39,40,41,42,43,44,45,46,47,48,49,50,51,52,53,54,55,56,57,58,59,60,61,62,63,64,65,66,67,68,69,70,71,72,73,74,75,76,77,78,79,80,81,82,83,84,85,86,87,88,89,90,91,92,93,94,95,96,97,98,99,100,101,102,103,104,105,106,107,108,109,110,111,112,113,114,115,116,117,118,119,120,121,122,123,124,125,126,127,128,129,130,131,132,133,134,135,136,137,138,139,140,141,142,143,144,145,146,147,148,149,150,151,152,153,154,155,156,157,158,159,160,161,162,163,164,165,166,167,168,169,170,171,172,173,174,175,176,177,178,179,180,181,182,183,184,185,186,187,188,189,190,191,192,193,194,195,196,197,198,199,200,201,202,203,204,205,206,207,208,209,210,211,212,213,214,215,216,217,218,219,220,221,222,223,224,225,226,227,228,229,230,231,232,233,234,235,236,237,238,239,240,241,242,243,244,245,246,247,248,249,250,251,252,253,254
0.8548744678870484,0.8408045563505007,0.8553169382612138,0.883802679765004,0.8772946833067943,0.8737132900385602,0.8715803510878684,0.8586436513399915,0.8618630271471521,0.8709794955069974,0.8568727768709539,0.841159199147437,0.8325095386233281,0.8131153303095195,0.8453488521930361,0.8759179367099672,0.8890365393532265,0.8639757350520987,0.8223168230363074,0.7852670016216718,0.7150006040882078,0.6674087174432808,0.6713763039060252,0.7176042537114671,0.7678640253851121,0.8043444983471049,0.8169299282620441,0.8113825053296093,0.857885492935718,0.9435365621790104,1.0,0.9381699839868194,0.8333313194126761,0.7142521449816317,0.6005756727803955,0.5974205660210314,0.6958766716075782,0.7954874048584566,0.8634573863496446,0.8631419232209816,0.8801811063054852,0.890684047933807,0.8663276381557159,0.8313810211336174,0.8338989614172982,0.8629750248805701,0.8761216290375029,0.8577420023522473,0.8271208195152231,0.7869393171711145,0.7268601734147158,0.6708645305178687,0.6439047045577739,0.6621019727219539,0.7021019979055336,0.7379880463357487,0.7762228198234329,0.8039407213411311,0.8151906242197104,0.8701533967344055,0.9488017094805001,0.9330703007883314,0.8363724315651031,0.7177468320062586,0.6020140072197795,0.508752797274846,0.5388241503423661,0.6499262582596108,0.7483452276156175,0.8167147237608288,0.8249335248361604,0.8477327386923839,0.8676229253204597,0.8593046083961049,0.8518013528574504,0.8302816130912438,0.8407098955065861,0.8523899890573174,0.8548145846841368,0.864375294971456,0.8361208317049571,0.8462001005849937,0.827069834664115,0.7740271772107503,0.7216376281812158,0.6956708722245222,0.7191447590512765,0.7390171545104871,0.7694927757717944,0.8108950928891514,0.8699505495357633,0.8952382349115484,0.8813183749334832,0.9187333703854375,0.8994569741131677,0.7974198096340985,0.6876000064571186,0.5658349946670276,0.4531945310436085,0.4683257617306489,0.5801072485085306,0.688276825362518,0.7953862345996803,0.8950497588500705,0.9426818238532162,0.9426172511069102,0.9192770997625992,0.931112512263002,0.9680788575540062,0.9668556147506981,0.9299969513782935,0.9218559334827203,0.9355375159588202,0.9255511188113976,0.8719843465639348,0.8116115390742142,0.7565563117566412,0.7684875496493135,0.8041527793438052,0.8395406661508038,0.8289388205641623,0.7770465165113514,0.744260459471862,0.6982827923307839,0.6667658899461193,0.6989928499233895,0.7573109416332167,0.8190776100671933,0.8735343670187228,0.8715084260442088,0.8586297910596157,0.86095777965616,0.9050757384830392,0.9065003636970919,0.8690578725072946,0.8571420257890399,0.8610224561260451,0.8835149862954097,0.8341022881036575,0.7365392328269462,0.6294156251369856,0.5218985858436835,0.4040568167475329,0.2818970763109174,0.16832239029404938,0.06163168785321593,0.0,0.06149725747375134,0.17232279216001611,0.2914906064781948,0.3990106015537127,0.5193627477098377,0.6374957095639444,0.7405648108592868,0.8019902895040163,0.8235209488214643,0.7848021256320195,0.7318941036989135,0.6973510164235615,0.674970236780323,0.6504065015809481,0.6250907730376154,0.6460103115828932,0.6981483437687679,0.7532615395425033,0.7718682978691165,0.7911378730360785,0.7979232206611524,0.7898790719737616,0.7736604614010534,0.762348299034378,0.781543635091277,0.7964526059618828,0.8017322946668384,0.7742432221707203,0.7576424071453784,0.7393592412570476,0.6399983079298277,0.5190251550173466,0.4102839417112665,0.2997826552543299,0.19026957819344048,0.07989061801775366,0.002825667820776978,0.042459820104685964,0.14965061907210275,0.26340098559108105,0.3855695421295402,0.5032756633118312,0.6116231588696275,0.730440475587729,0.7755122330590707,0.74936090132978,0.7309459613987683,0.6952487957205213,0.6658313227291379,0.6266211328170752,0.5919653253569566,0.5791069465704464,0.6061851704819476,0.6591053241490732,0.7223898874365791,0.7663527151614109,0.8005495863721772,0.8099912221481755,0.7906180567592651,0.7604215059232802,0.7634514276447613,0.798333914734342,0.8192141301505411,0.8006816312778722,0.7944048650379889,0.7586669286303698,0.6571483063054497,0.5505983195617312,0.43795427280641297,0.3295925288869803,0.22319498596472132,0.1403927205601052,0.16940383288241634,0.27785867787972407,0.39999364560469886,0.5223026889462354,0.6446101332452434,0.763325749319089,0.7992005392541892,0.7620175391101491,0.7520632338018567,0.7473945531587396,0.7107805065002988,0.6562863927353546,0.6134062327552656,0.5970512077074757,0.6183852034317683,0.6768892442685357,0.7390257328668164,0.763501623910126,0.8029566798076417,0.8276567734615559,0.8045509246829061,0.7620577317023893,0.7416555301996128,0.7676782613053876,0.7858622707980762,0.7975885887148983,0.8065860056872456,0.7934356020761495,0.8053649247311485,0.8189676358960338,0.808894813417111,0.8099041588156464,0.8188839074540919,0.7866957171747488,0.7842744556639669,0.7911445344007264
0,1,2,3,4,5,6,7,8,9,10,11,12,13,14,15,16,17,18,19,20,21,22,23,24,25,26,27,28,29,30,31,32,33,34,35,36,37,38,39,40,41,42,43,44,45,46,47,48,49,50,51,52,53,54,55,56,57,58,59,60,61,62,63,64,65,66,67,68,69,70,71,72,73,74,75,76,77,78,79,80,81,82,83,84,85,86,87,88,89,90,91,92,93,94,95,96,97,98,99,100,101,102,103,104,105,106,107,108,109,110,111,112,113,114,115,116,117,118,119,120,121,122,123,124,125,126,127,128,129,130,131,132,133,134,135,136,137,138,139,140,141,142,143,144,145,146,147,148,149,150,151,152,153,154,155,156,157,158,159,160,161,162,163,164,165,166,167,168,169,170,171,172,173,174,175,176,177,178,179,180,181,182,183,184,185,186,187,188,189,190,191,192,193,194,195,196,197,198,199,200,201,202,203,204,205,206,207,208,209,210,211,212,213,214,215,216,217,218,219,220,221,222,223,224,225,226,227,228,229,230,231,232,233,234,235,236,237,238,239,240,241,242,243,244,245,246,247,248,249,250,251,252,253,254
0.6339684255825628,0.6436360883262227,0.6651424994987254,0.67552864439131,0.6590953324975808,0.6184391076016387,0.5681132729689886,0.52367253696963,0.4837891893617696,0.4950069679401672,0.5502029675252813,0.6201388233013336,0.694591522387118,0.7263033519050173,0.7364225162547484,0.7583627188766546,0.7878923086378964,0.856626840701086,0.9224691458225971,0.986591724726384,1.0,0.931672594449847,0.8388981107267952,0.7433561321233295,0.644661005238528,0.5449932372871347,0.4926708278562426,0.5798230607188879,0.6785570766039708,0.7674935989522416,0.7803049178202031,0.7603918398873724,0.7346313140951048,0.6987165981317793,0.6988490997809382,0.7248385156867729,0.7215119691742937,0.7286614486301404,0.7324459681342472,0.7239422951149477,0.7195854777015045,0.7236444022962703,0.7321042179302943,0.7335002470423535,0.7063730069964316,0.6877915548211297,0.6672663626881472,0.6631117145587377,0.6343727419184506,0.5780935369244302,0.5257395668534999,0.4771989932422622,0.47192994076024597,0.5207172096007526,0.5843547207330686,0.632171898142837,0.6580230446023325,0.6616559257106975,0.688019123580303,0.7315416691956926,0.8052494697944854,0.8683707906017228,0.8987039154696217,0.8492560793592898,0.770785938853487,0.6779552695231286,0.5732408587107729,0.47468943493238,0.46789802692139437,0.5610876905626996,0.6468005363486466,0.6645365283622615,0.6403959735739013,0.6220341388693886,0.5792285459625712,0.5696433974978241,0.599660288772744,0.6059434229365919,0.6303724030317741,0.6431132074709178,0.6348653808400142,0.6275419583737243,0.6409574177212822,0.6367256859204029,0.6405806496185185,0.6285054102981324,0.6154714553524419,0.6185846651530067,0.585280290692971,0.5392404576658509,0.4915379711924679,0.4402144802803827,0.4212427045324465,0.45786644970433255,0.5130937371391036,0.5699120916241558,0.6094428920667809,0.6286378763633738,0.6084545866564337,0.6325661792536725,0.6603004717224059,0.7300477275380151,0.8099533638491079,0.8699792607796977,0.8614254853477972,0.7955010248967125,0.6881501052315064,0.5885091509951743,0.48897423198015044,0.3871486445129664,0.3036661147709143,0.35774313548531156,0.45931066059617454,0.5634308502328622,0.6543647097516323,0.6769133039608128,0.6473170874688319,0.6423420742253403,0.6388316878779183,0.595880439288154,0.5788959161335105,0.6098851302614179,0.6313319226046286,0.662515451305965,0.6261619547738961,0.5671874402512063,0.5304996766233256,0.5123396415321886,0.5157785646248518,0.5557601409396895,0.5741894335513393,0.5762012141256094,0.5543819818371447,0.460870809884256,0.3541123300214015,0.25157250760281524,0.14746414290849064,0.04619823052587524,0.0,0.06749609479357277,0.1753715870940069,0.27772234913039284,0.39115563846572776,0.4974235566926195,0.5958434650301916,0.6941051416334414,0.7861889126783765,0.7937107850189173,0.7252422717976739,0.6435897707652347,0.5907652168749395,0.5604726841379408,0.53971210037197,0.5315468307682845,0.49856598413222875,0.4424552742596908,0.39146425987639466,0.3535025889777499,0.3626004990462195,0.41710793021955794,0.4673778664017445,0.5144834312698485,0.5469891294625087,0.5560235318414835,0.5684886540046858,0.5734858556996283,0.5713365876659355,0.5695664743399806,0.5420582135212122,0.5399166589751663,0.5490083526671761,0.5430442535435573,0.5234422191982873,0.4969037634884317,0.4955599801560191,0.5374090800981102,0.5696412302608751,0.5767042229424106,0.5107572157307554,0.41331504720746004,0.310388483530164,0.2085707541532793,0.15316653914552925,0.21850997922887494,0.32754518565889557,0.4295737842419971,0.5336696097539129,0.6270603472378937,0.7187564128434696,0.7956595857782935,0.7874651819822627,0.7090920143301225,0.6479108325827054,0.6148315807702027,0.6016326583137701,0.5928994441474278,0.5506109480710615,0.5004880921781596,0.4405576740005208,0.39204784099956,0.3968154294066406,0.4482084963224571,0.4996152563970715,0.5492527686188979,0.5957369562375576,0.6048424402884431,0.6247717546840823,0.6342651648515765,0.6579122720910906,0.6622060559549294,0.6540439414471444,0.6590421405484874,0.666312169263716,0.6677439300422945,0.6639836161209143,0.6598349778053043,0.6372207403568453,0.6108359714173548,0.6444350655474969,0.6716333693226724,0.6976935525562333,0.6637672361330402,0.569416956724444,0.46370003109025015,0.37909861303346704,0.28436186845930145,0.1894960859902186,0.16742057318806047,0.2510936422992298,0.35669841490123133,0.4580739519100234,0.5601472970781831,0.6607980808646396,0.7591131691759374,0.85378434971999,0.9175133025274831,0.8658414306114319,0.7980570852567404,0.7339329808867925,0.6898540797226294,0.6719037796317111,0.6468731085773589,0.6287320257748936,0.5699203302632041,0.5011838640632971,0.4448489892359371,0.3997174944193107,0.40732801641136307,0.4449596478971971,0.49314134604164606,0.5430445359849454,0.5804890060432188,0.5870516077259511,0.581842065816387,0.5709790258225174
0,1,2,3,4,5,6,7,8,9,10,11,12,13,14,15,16,17,18,19,20,21,22,23,24,25,26,27,28,29,30,31,32,33,34,35,36,37,38,39,40,41,42,43,44,45,46,47,48,49,50,51,52,53,54,55,56,57,58,59,60,61,62,63,64,65,66,67,68,69,70,71,72,73,74,75,76,77,78,79,80,81,82,83,84,85,86,87,88,89,90,91,92,93,94,95,96,97,98,99,100,101,102,103,104,105,106,107,108,109,110,111,112,113,114,115,116,117,118,119,120,121,122,123,124,125,126,127,128,129,130,131,132,133,134,135,136,137,138,139,140,141,142,143,144,145,146,147,148,149,150,151,152,153,154,155,156,157,158,159,160,161,162,163,164,165,166,167,168,169,170,171,172,173,174,175,176,177,178,179,180,181,182,183,184,185,186,187,188,189,190,191,192,193,194,195,196,197,198,199,200,201,202,203,204,205,206,207,208,209,210,211,212,213,214,215,216,217,218,219,220,221,222,223,224,225,226,227,228,229,230,231,232,233,234,235,236,237,238,239,240,241,242,243,244,245,246,247,248,249,250,251,252,253,254
0.6339684255825628,0.6436360883262227,0.6651424994987254,0.67552864439131,0.6590953324975808,0.6184391076016387,0.5681132729689886,0.52367253696963,0.4837891893617696,0.4950069679401672,0.5502029675252813,0.6201388233013336,0.694591522387118,0.7263033519050173,0.7364225162547484,0.7583627188766546,0.7878923086378964,0.856626840701086,0.9224691458225971,0.986591724726384,1.0,0.931672594449847,0.8388981107267952,0.7433561321233295,0.644661005238528,0.5449932372871347,0.4926708278562426,0.5798230607188879,0.6785570766039708,0.7674935989522416,0.7803049178202031,0.7603918398873724,0.7346313140951048,0.6987165981317793,0.6988490997809382,0.7248385156867729,0.7215119691742937,0.7286614486301404,0.7324459681342472,0.7239422951149477,0.7195854777015045,0.7236444022962703,0.7321042179302943,0.7335002470423535,0.7063730069964316,0.6877915548211297,0.6672663626881472,0.6631117145587377,0.6343727419184506,0.5780935369244302,0.5257395668534999,0.4771989932422622,0.47192994076024597,0.5207172096007526,0.5843547207330686,0.632171898142837,0.6580230446023325,0.6616559257106975,0.688019123580303,0.7315416691956926,0.8052494697944854,0.8683707906017228,0.8987039154696217,0.8492560793592898,0.770785938853487,0.6779552695231286,0.5732408587107729,0.47468943493238,0.46789802692139437,0.5610876905626996,0.6468005363486466,0.6645365283622615,0.6403959735739013,0.6220341388693886,0.5792285459625712,0.5696433974978241,0.599660288772744,0.6059434229365919,0.6303724030317741,0.6431132074709178,0.6348653808400142,0.6275419583737243,0.6409574177212822,0.6367256859204029,0.6405806496185185,0.6285054102981324,0.6154714553524419,0.6185846651530067,0.585280290692971,0.5392404576658509,0.4915379711924679,0.4402144802803827,0.4212427045324465,0.45786644970433255,0.5130937371391036,0.5699120916241558,0.6094428920667809,0.6286378763633738,0.6084545866564337,0.6325661792536725,0.6603004717224059,0.7300477275380151,0.8099533638491079,0.8699792607796977,0.8614254853477972,0.7955010248967125,0.6881501052315064,0.5885091509951743,0.48897423198015044,0.3871486445129664,0.3036661147709143,0.35774313548531156,0.45931066059617454,0.5634308502328622,0.6543647097516323,0.6769133039608128,0.6473170874688319,0.6423420742253403,0.6388316878779183,0.595880439288154,0.5788959161335105,0.6098851302614179,0.6313319226046286,0.662515451305965,0.6261619547738961,0.5671874402512063,0.5304996766233256,0.5123396415321886,0.5157785646248518,0.5557601409396895,0.5741894335513393,0.5762012141256094,0.5543819818371447,0.460870809884256,0.3541123300214015,0.25157250760281524,0.14746414290849064,0.04619823052587524,0.0,0.06749609479357277,0.1753715870940069,0.27772234913039284,0.39115563846572776,0.4974235566926195,0.5958434650301916,0.6941051416334414,0.7861889126783765,0.7937107850189173,0.7252422717976739,0.6435897707652347,0.5907652168749395,0.5604726841379408,0.53971210037197,0.5315468307682845,0.49856598413222875,0.4424552742596908,0.39146425987639466,0.3535025889777499,0.3626004990462195,0.41710793021955794,0.4673778664017445,0.5144834312698485,0.5469891294625087,0.5560235318414835,0.5684886540046858,0.5734858556996283,0.5713365876659355,0.5695664743399806,0.5420582135212122,0.5399166589751663,0.5490083526671761,0.5430442535435573,0.5234422191982873,0.4969037634884317,0.4955599801560191,0.5374090800981102,0.5696412302608751,0.5767042229424106,0.5107572157307554,0.41331504720746004,0.310388483530164,0.2085707541532793,0.15316653914552925,0.21850997922887494,0.32754518565889557,0.4295737842419971,0.5336696097539129,0.6270603472378937,0.7187564128434696,0.7956595857782935,0.7874651819822627,0.7090920143301225,0.6479108325827054,0.6148315807702027,0.6016326583137701,0.5928994441474278,0.5506109480710615,0.5004880921781596,0.4405576740005208,0.39204784099956,0.3968154294066406,0.4482084963224571,0.4996152563970715,0.5492527686188979,0.5957369562375576,0.6048424402884431,0.6247717546840823,0.6342651648515765,0.6579122720910906,0.6622060559549294,0.6540439414471444,0.6590421405484874,0.666312169263716,0.6677439300422945,0.6639836161209143,0.6598349778053043,0.6372207403568453,0.6108359714173548,0.6444350655474969,0.6716333693226724,0.6976935525562333,0.6637672361330402,0.569416956724444,0.46370003109025015,0.37909861303346704,0.28436186845930145,0.1894960859902186,0.16742057318806047,0.2510936422992298,0.35669841490123133,0.4580739519100234,0.5601472970781831,0.6607980808646396,0.7591131691759374,0.85378434971999,0.9175133025274831,0.8658414306114319,0.7980570852567404,0.7339329808867925,0.6898540797226294,0.6719037796317111,0.6468731085773589,0.6287320257748936,0.5699203302632041,0.5011838640632971,0.4448489892359371,0.3997174944193107,0.40732801641136307,0.4449596478971971,0.49314134604164606,0.5430445359849454,0.5804890060432188,0.5870516077259511,0.581842065816387,0.5709790258225174
0,1,2,3,4,5,6,7,8,9,10,11,12,13,14,15,16,17,18,19,20,21,22,23,24,25,26,27,28,29,30,31,32,33,34,35,36,37,38,39,40,41,42,43,44,45,46,47,48,49,50,51,52,53,54,55,56,57,58,59,60,61,62,63,64,65,66,67,68,69,70,71,72,73,74,75,76,77,78,79,80,81,82,83,84,85,86,87,88,89,90,91,92,93,94,95,96,97,98,99,100,101,102,103,104,105,106,107,108,109,110,111,112,113,114,115,116,117,118,119,120,121,122,123,124,125,126,127,128,129,130,131,132,133,134,135,136,137,138,139,140,141,142,143,144,145,146,147,148,149,150,151,152,153,154,155,156,157,158,159,160,161,162,163,164,165,166,167,168,169,170,171,172,173,174,175,176,177,178,179,180,181,182,183,184,185,186,187,188,189,190,191,192,193,194,195,196,197,198,199,200,201,202,203,204,205,206,207,208,209,210,211,212,213,214,215,216,217,218,219,220,221,222,223,224,225,226,227,228,229,230,231,232,233,234,235,236,237,238,239,240,241,242,243,244,245,246,247,248,249,250,251,252,253,254
0.643017164019315,0.6912231926957979,0.7281132781030619,0.7529377636592911,0.7295193189420122,0.6594020829347089,0.5743700268036678,0.4742451271721615,0.4029401161540038,0.4612940815705966,0.5717290534055106,0.6807562612965188,0.7861850577123182,0.8923880449874066,0.9845080373427098,1.0,0.9178042556776145,0.8479564236251984,0.8181951095112967,0.7662406759879268,0.7273547136598237,0.7585396612170543,0.7997639074061698,0.8194187973653504,0.8188186149041021,0.8059963148986928,0.7879816871042138,0.7766289205258645,0.794184727265483,0.7999300321240477,0.8163407984244673,0.8221934455248174,0.8084196810647395,0.7788934070400573,0.7183468721723334,0.6514694498328306,0.5905043516414121,0.5266245983550415,0.47138430548966026,0.46584420857402487,0.4978933182973182,0.5516914906796146,0.6031620235516915,0.6462838775065394,0.6772146868114977,0.6760573177461748,0.626398252493745,0.5607365019240924,0.4758362939791838,0.3961256318010733,0.424427746284894,0.5254632839029032,0.636030901385868,0.7413037765865584,0.8476194498128793,0.9304858946796877,0.9232834871722253,0.8411767125588581,0.7699914333730598,0.7352059781324707,0.6971362795430283,0.7081417726631867,0.7545163376052222,0.7870412308856225,0.7870872209120678,0.7858713627228764,0.7825517073054926,0.7725833039119672,0.7746515784842716,0.7749117451949687,0.7747775390680824,0.7671563702305502,0.7492231712212241,0.7096596096547043,0.651269283494909,0.5841584206687078,0.5228261422954175,0.48793808069013744,0.5118991927052225,0.5702618807866271,0.6263653701288088,0.6769940107900845,0.7138270571524843,0.7322958555279744,0.6943994465964449,0.6246693110799795,0.5380322586122777,0.4423488240801552,0.35220768952824866,0.372854976137877,0.48450483206354544,0.5997623807177415,0.7111250448196227,0.8123649941467059,0.9089115485774375,0.959336208870559,0.9048698810903271,0.8315625683688674,0.7964162193076412,0.753668538422545,0.711791876010087,0.7463254728366939,0.8028997343879434,0.8315158202711617,0.831605447859094,0.8335184937489148,0.8245733754015285,0.8378586573998374,0.8569088759932706,0.8619925529862198,0.840396531476876,0.8224903125435539,0.7955270515219812,0.7504740143360378,0.6925341637674616,0.636218998236274,0.5708742681944288,0.4996269989701836,0.4633006448754142,0.5192795505510994,0.5418927576447676,0.49800513874257213,0.4508429552725861,0.38097969804330933,0.28086445458951914,0.25078460286052406,0.30188863167145286,0.3877627352924664,0.42850254187960424,0.48912977172674665,0.5576880742249508,0.6182577654346564,0.6773126698243774,0.728239006819067,0.7693897544240347,0.7876272118836063,0.8085244598937571,0.8120905522578807,0.7879279521583618,0.7710254077506957,0.7757370773416437,0.7843614307858262,0.7739226620913433,0.7258102017160422,0.6668784895172228,0.633431588957361,0.6826382162184887,0.7328404838810791,0.7671151824616209,0.8050861442907986,0.7735766125810599,0.6667076914737464,0.5627147677551938,0.44870407526819234,0.3436235654757831,0.23402904940779834,0.12588659962861515,0.05269701690003048,0.10007691435206745,0.2027762943114917,0.30487686062436126,0.40493233323689415,0.4846391458172401,0.5654465850846204,0.643363202746877,0.6718151456334427,0.6422369968321942,0.5897821585245921,0.5380553767342939,0.48140788528432665,0.43875322530917327,0.4368426380672017,0.474185673776204,0.532740145738682,0.5975891869425882,0.6631146558327106,0.7062046295953057,0.7196114664435997,0.7277177703794995,0.7210386750127489,0.7195238059980213,0.7245977569635875,0.7352231623887846,0.7357473907610128,0.7298996134774809,0.6958716688748874,0.6405857955864662,0.6011085254629593,0.645622055277975,0.6885781338608634,0.7207456839040423,0.7766110618670772,0.7571592717578239,0.6569212018972599,0.5481522027497356,0.4429584073112447,0.3334838356314114,0.22004603215873297,0.11706366893744447,0.013387291703282234,0.0,0.0873764556827723,0.18948974491522153,0.29092225337477684,0.3881867867126907,0.48135211848870574,0.5670722740326193,0.6265189899369648,0.6102000283686304,0.5637696032937587,0.5111411821878358,0.4611697251082778,0.41650294869387317,0.41689602473005083,0.455926196718782,0.5153708012313802,0.5794869140311003,0.6406759505235722,0.7059711644635258,0.7506293452416104,0.7732273751496073,0.7662067222466247,0.7476610655281215,0.7428483383527613,0.7264748992614591,0.7364831637060738,0.7493182109204017,0.7618202402088841,0.7680277847410912,0.7544550006945117,0.7090557174776095,0.6643802097543605,0.6779171238241357,0.7405237312632993,0.7868320870766055,0.8178135660935975,0.8303433113358434,0.7422001777322818,0.636043014113878,0.5284999404164181,0.41800704580451553,0.3137131199650267,0.20110471674423724,0.10795957685096935,0.09692981573700088,0.19031984086793408,0.2969041362912397,0.3978433088236777,0.49389051077831736,0.5820019814899204,0.662285275979392,0.6926666587373003,0.6649032308527194,0.6195191223071861,0.5664599445167751
0,1,2,3,4,5,6,7,8,9,10,11,12,13,14,15,16,17,18,19,20,21,22,23,24,25,26,27,28,29,30,31,32,33,34,35,36,37,38,39,40,41,42,43,44,45,46,47,48,49,50,51,52,53,54,55,56,57,58,59,60,61,62,63,64,65,66,67,68,69,70,71,72,73,74,75,76,77,78,79,80,81,82,83,84,85,86,87,88,89,90,91,92,93,94,95,96,97,98,99,100,101,102,103,104,105,106,107,108,109,110,111,112,113,114,115,116,117,118,119,120,121,122,123,124,125,126,127,128,129,130,131,132,133,134,135,136,137,138,139,140,141,142,143,144,145,146,147,148,149,150,151,152,153,154,155,156,157,158,159,160,161,162,163,164,165,166,167,168,169,170,171,172,173,174,175,176,177,178,179,180,181,182,183,184,185,186,187,188,189,190,191,192,193,194,195,196,197,198,199,200,201,202,203,204,205,206,207,208,209,210,211,212,213,214,215,216,217,218,219,220,221,222,223,224,225,226,227,228,229,230,231,232,233,234,235,236,237,238,239,240,241,242,243,244,245,246,247,248,249,250,251,252,253,254
0.9801915555930227,1.0,0.9383022543012327,0.8478538789401342,0.7537268708263687,0.6520483305182574,0.5534289839290429,0.44634297425613934,0.3491312702664964,0.33535600568498736,0.4351735130905676,0.544667875830378,0.6465489321594164,0.7458019019743696,0.8295997535399131,0.8584365244110428,0.8574648211668179,0.8463478290481277,0.8250888120985742,0.8034356292667364,0.8264697492590867,0.82977113978645,0.8342364867169194,0.8250596251583122,0.8137795041585636,0.8115226466725751,0.8052065677740283,0.7997339053437895,0.8059013275447238,0.8367513117926912,0.8642917661246203,0.9008443556121737,0.9413546226770433,0.9658406214556674,0.9706530859897637,0.9517031961214801,0.9696371036281679,0.9487813568077366,0.8698573849862883,0.775993700853332,0.677835866269894,0.5784752532240405,0.47445496045897784,0.39591083959787765,0.4451670444723823,0.5263204359669298,0.6207889551476469,0.7205670270573368,0.8142671806486805,0.8538079128075928,0.8451049869210605,0.8409638450693966,0.8268884739231179,0.7995735500001011,0.7993106584762515,0.8148428103582002,0.8066926213848769,0.8166585491994383,0.8198723497131462,0.8210312425734565,0.8387285991109761,0.8731968853839152,0.9072709147127611,0.9386683336771675,0.9706389728399683,0.9934329101847506,0.9783095914412185,0.9682144681242675,0.9547927542814976,0.8836079800457144,0.7896518916858288,0.6886126909276902,0.5894757081164457,0.48071284429064853,0.38527829042516726,0.41284519910529216,0.5147486664273484,0.614392526361101,0.7160040543354849,0.8072555313938929,0.8518489996944849,0.8549157027157905,0.8491513436225357,0.8324745165740008,0.8027610964313583,0.799578130460258,0.8060917712558928,0.8165309383223995,0.8043035302980992,0.7922955310762405,0.7990721333866166,0.7987591236003748,0.8023107533104716,0.8285096074540319,0.8642381115015887,0.9021229730516276,0.9411218106129384,0.9637781455971615,0.9555642605263555,0.9472608533667883,0.9562882591836113,0.9806692956785992,0.9211505328304521,0.8332939631954952,0.7388724207485087,0.6412620865281982,0.5354247666992804,0.43478142184236157,0.3446507184459364,0.377828695887666,0.48497353970285584,0.585343753308444,0.6864821999149084,0.7802009763708604,0.8410497448966492,0.8475761191259026,0.8396071579552147,0.8306839583875765,0.813364390135737,0.8025933762782271,0.7646226459749239,0.7628994584868387,0.7857258922963082,0.7960059347081891,0.7894055602202843,0.7180230474071307,0.6207952833108132,0.5201398727786319,0.41900739020988276,0.3201736920140943,0.21757668836014976,0.1275790289620209,0.12084186996879986,0.20710194062334852,0.3041481212628241,0.4028445543247283,0.5075365810145129,0.6095781071222515,0.7111486674717358,0.8069310093519322,0.8806315605631023,0.8900486840797268,0.9012403324360405,0.9178642824840142,0.904702767938721,0.8638697129553368,0.8295220058883701,0.7928265473260017,0.7594965304919898,0.7419166555826382,0.7436085032563495,0.7415411012713635,0.7458371166638882,0.7580592096925685,0.766669406554497,0.7523396907268185,0.7439827254016218,0.740426193793787,0.7745544743449044,0.7951698796950661,0.8038886882171732,0.7781550183053998,0.6924958194401172,0.5934075566759489,0.4912200985211488,0.3908838714864453,0.29257893071961183,0.19232636417785232,0.1122153316915735,0.13959223445359203,0.23658871073329268,0.3358615206113462,0.4370613017468967,0.5362691820126706,0.6325421610215436,0.7138323753828821,0.8064394234371002,0.8952355686069877,0.9098912348045802,0.9201677922463491,0.9378336178438551,0.9295722900914067,0.8977778962081646,0.8635023110838942,0.8335827793243222,0.7949464470498224,0.7783955835853709,0.7797158952878922,0.7632302177227288,0.7572549156954356,0.7635720165857078,0.7584291210429903,0.7483011800500057,0.7372676518628998,0.7730542097373885,0.7893885944241275,0.7966132257378717,0.7871333132748575,0.7108086864107004,0.6128760877376225,0.5102827477378056,0.4105642109030172,0.3088315006871989,0.20624356973459235,0.10209697387390526,0.01035133011126077,0.0,0.08740398327456078,0.1855735830039631,0.2906843758731297,0.3893215141124089,0.4954982376533623,0.5941510515722075,0.6979789266669001,0.7942947906178413,0.8759760225909337,0.893375530009429,0.908268949457407,0.9121801117436337,0.8858301551844088,0.8455958472693075,0.811985639168296,0.7816703902420499,0.7514672855651634,0.7546652268884455,0.7657680354056056,0.7582660286136176,0.765843642211689,0.7645475238257378,0.7765770208945657,0.7802439478752512,0.7676968670350259,0.7488812300636543,0.7650642024597389,0.793363859684638,0.7994172718283621,0.7945738661049311,0.7234515247981093,0.6214499846754711,0.5228060720002912,0.4178191321302842,0.32148411795224097,0.24019807607103205,0.14695801239347173,0.07739129178222881,0.1240289410073454,0.21987564041712426,0.32060071705021054,0.42228034928246405,0.523762610689682,0.6266257563239295,0.7268677331527429,0.8244251351165559,0.9088550833079818,0.9229470737609748
0,1,2,3,4,5,6,7,8,9,10,11,12,13,14,15,16,17,18,19,20,21,22,23,24,25,26,27,28,29,30,31,32,33,34,35,36,37,38,39,40,41,42,43,44,45,46,47,48,49,50,51,52,53,54,55,56,57,58,59,60,61,62,63,64,65,66,67,68,69,70,71,72,73,74,75,76,77,78,79,80,81,82,83,84,85,86,87,88,89,90,91,92,93,94,95,96,97,98,99,100,101,102,103,104,105,106,107,108,109,110,111,112,113,114,115,116,117,118,119,120,121,122,123,124,125,126,127,128,129,130,131,132,133,134,135,136,137,138,139,140,141,142,143,144,145,146,147,148,149,150,151,152,153,154,155,156,157,158,159,160,161,162,163,164,165,166,167,168,169,170,171,172,173,174,175,176,177,178,179,180,181,182,183,184,185,186,187,188,189,190,191,192,193,194,195,196,197,198,199,200,201,202,203,204,205,206,207,208,209,210,211,212,213,214,215,216,217,218,219,220,221,222,223,224,225,226,227,228,229,230,231,232,233,234,235,236,237,238,239,240,241,242,243,244,245,246,247,248,249,250,251,252,253,254
0.781525913449379,0.7766572732282389,0.7393735785943374,0.681769898675626,0.6784225094979273,0.7327849375028985,0.7442338044855519,0.732008592871094,0.6684254909200646,0.5788941998010646,0.46473395652060967,0.3392912838940054,0.22571876320291828,0.1334639635788073,0.13502120699075792,0.2246110938870327,0.3140776972880328,0.4139964695657574,0.49844108573816515,0.5733109096232698,0.6660104915386875,0.7779753146672048,0.9093397339380234,1.0,0.9432012911704453,0.8039066561712271,0.6573800892908856,0.5554760710728202,0.6468571655695934,0.7883091465046879,0.8635136101033889,0.8336052620801793,0.8172210456864546,0.7783032775096337,0.718251517391467,0.6809128088892211,0.7308958357215318,0.7484595262368283,0.7233455328549323,0.6794938653321738,0.6011513812642062,0.4977584196126932,0.38348776148474695,0.2563553122365838,0.1407497794602115,0.08242824397261161,0.15493910803887,0.2539496333038116,0.34492065386742654,0.4312976436567171,0.5007900343710263,0.5772965335977136,0.6924233669345004,0.8168010048202095,0.9012922812038466,0.8455405303616765,0.7060966226646879,0.5497015926991367,0.5075766136209046,0.6335106788914397,0.7630573281245283,0.8163815118954076,0.8376082324053629,0.8740636990414647,0.8644948329593016,0.8257446449104866,0.849149751519561,0.9094098540538975,0.8957411160227995,0.832141253593357,0.7373984808312972,0.6310493159909227,0.5317107276694517,0.4259409191815755,0.31160185453770595,0.20319109768662535,0.12837331179878753,0.18491835834967674,0.28039182618788727,0.3848309489874224,0.4758344360227551,0.5609133143435603,0.6341360095436426,0.7192338010487038,0.8365639362768182,0.9607927139371824,0.9619075830997903,0.8431632541886738,0.6987880502385733,0.5668939716212287,0.6044801529662895,0.743099358808049,0.8308647121642929,0.8025259521083901,0.7890345981202755,0.7702169799794123,0.7265708177233927,0.7059221731314369,0.7616120526483741,0.8007009930353508,0.7826431030786134,0.7293863581490765,0.6554647261814268,0.543411900765709,0.4266476973948201,0.3147959229010149,0.2181249693910332,0.22263537611682738,0.3062405548963687,0.3996734979209826,0.4824453058782945,0.5461245987566183,0.6291190873040997,0.7317754039584341,0.853564238498095,0.9254442403706507,0.845294453501662,0.7028246668470368,0.5677175873696969,0.5930129534555779,0.7254055083750997,0.7854235521797293,0.7261518356106667,0.6534667443569848,0.5211898748954824,0.40733001519288825,0.2888856697714992,0.13123579154546006,0.04227963385375233,0.08676884824379094,0.21088108086222102,0.3106742628632544,0.45210505374035526,0.5973655650821237,0.7313785853872177,0.7165099968538176,0.6144995679981591,0.5302111780158048,0.45992179843368763,0.38586808158792163,0.29621978642495916,0.20059453140709937,0.1266453728083019,0.12358494891822591,0.20262526404748948,0.31015997927904815,0.432720347689346,0.548784632162326,0.6406953941830409,0.6947848802709298,0.7203274704919065,0.6835118648393363,0.6119430810356361,0.6148052606373344,0.6715900912269652,0.7092244507264902,0.7284922588528011,0.7458251675648313,0.6786548991003714,0.5407966196730762,0.41990333464023877,0.30543061988790665,0.3486948766289193,0.4669055754192364,0.5982030519394073,0.7443885334930256,0.8307839162104815,0.7404287183827054,0.6296170627903552,0.5567356613077044,0.4792896570753604,0.39017066707718806,0.2970205524623686,0.19265848589348922,0.09456470811919804,0.03658007235257532,0.07866328987779259,0.17595889591311664,0.28394523057290755,0.4007921396280163,0.5104209203143188,0.6006625553086979,0.7110924128056371,0.8022457676483654,0.8264346021529931,0.7636808827323671,0.7327294306366019,0.7783884617132499,0.8002703491126861,0.7741866474088881,0.7368948374951296,0.6519090404142185,0.5114368617243721,0.365106835156392,0.2397198292886995,0.25726519325466723,0.39039383800671823,0.5395776599188835,0.6831657031307308,0.725112352095536,0.6159966781113813,0.516318665789246,0.44070183536134344,0.37123482074734504,0.2795880488926552,0.18674519788190302,0.08856727620636029,0.004440679285055982,0.0,0.09178068551300944,0.20715302656132595,0.3271052553994225,0.44608594686767855,0.550219161827108,0.6313643007792895,0.6643949123048243,0.6744050043138974,0.6154403094994838,0.5783427806068109,0.6352084256525856,0.7015347059057135,0.7395318763652261,0.7461187705432897,0.7591961432790089,0.664097665832827,0.5188892015583861,0.3795746539997218,0.30175656152873076,0.38290168624128507,0.5266075831469763,0.6761943362585323,0.8194057500519718,0.8146107847658088,0.6944701951344814,0.594762459366482,0.5090989959326979,0.43161107870093396,0.34663855658039466,0.24574551047808546,0.15035957611738704,0.06778750404970646,0.051398088875644454,0.12592256104810318,0.23917837446940293,0.3631454604530062,0.4737578309803663,0.5766256273659636,0.654716936377929,0.6753760768151698,0.6556801214742443,0.5901992642288927,0.5895306428914839,0.6417159266494226,0.6958053745930814,0.7154179086140982
0,1,2,3,4,5,6,7,8,9,10,11,12,13,14,15,16,17,18,19,20,21,22,23,24,25,26,27,28,29,30,31,32,33,34,35,36,37,38,39,40,41,42,43,44,45,46,47,48,49,50,51,52,53,54,55,56,57,58,59,60,61,62,63,64,65,66,67,68,69,70,71,72,73,74,75,76,77,78,79,80,81,82,83,84,85,86,87,88,89,90,91,92,93,94,95,96,97,98,99,100,101,102,103,104,105,106,107,108,109,110,111,112,113,114,115,116,117,118,119,120,121,122,123,124,125,126,127,128,129,130,131,132,133,134,135,136,137,138,139,140,141,142,143,144,145,146,147,148,149,150,151,152,153,154,155,156,157,158,159,160,161,162,163,164,165,166,167,168,169,170,171,172,173,174,175,176,177,178,179,180,181,182,183,184,185,186,187,188,189,190,191,192,193,194,195,196,197,198,199,200,201,202,203,204,205,206,207,208,209,210,211,212,213,214,215,216,217,218,219,220,221,222,223,224,225,226,227,228,229,230,231,232,233,234,235,236,237,238,239,240,241,242,243,244,245,246,247,248,249,250,251,252,253,254
0.8348464166520753,0.8350259624196656,0.8484147075373274,0.8501831555152792,0.8521937355229969,0.8505441231951414,0.8520601175589313,0.8811852488083192,0.9137115523473449,0.9404173307376746,1.0,0.9946150539733036,0.9465310214209612,0.8952469454810554,0.8379948366314789,0.8444813511226572,0.854642303537533,0.8859771717851634,0.8700499680237197,0.8645311399382418,0.8674396069289259,0.8858682147956358,0.835223591565577,0.724345475313803,0.5910736734336455,0.5964111100782663,0.733980788289549,0.833496899862495,0.8472291415989384,0.824832728151982,0.7347242468078461,0.6981935126122902,0.7382957489444069,0.7865740802921541,0.8161513454687439,0.8108663510528089,0.8165746722757641,0.8137523399860731,0.8503031606011788,0.8372191480796385,0.8100903448201677,0.8187553541950585,0.8316872860788402,0.8656905801718908,0.8988956351664568,0.9482102635059597,0.9134984245161579,0.8577020601634722,0.8288031687189328,0.8069425517302484,0.8376151949567827,0.8641751223049345,0.8401937624388429,0.8333189686761555,0.8533168176700316,0.8550525669190554,0.7945795857326541,0.6708207535495747,0.5294856199032916,0.5396416693006696,0.6711713507238324,0.7686604211557535,0.8024046441523573,0.7786252255992183,0.6857783882830182,0.6909401894282761,0.7544900572127222,0.7880761315663145,0.8108011072424937,0.8232786371356555,0.8319829868556576,0.8241967527712566,0.8462571638386418,0.8502319426643261,0.835494112014616,0.8450659750074001,0.8674802503211652,0.8982251468164018,0.9378192725806809,0.9446236268388946,0.9196045103801262,0.8783159321135638,0.8491576767586189,0.8428275173743884,0.8521628857501051,0.8272357660301415,0.8300594170324933,0.8352083688096483,0.8483872562095094,0.789223634736059,0.6705076539814119,0.5334582775780445,0.5312342954199005,0.667298336426386,0.7648582319056221,0.823388526684691,0.8017195975885203,0.7191625459680493,0.7265782990404297,0.7972710762889337,0.8349527137569668,0.8518254439020474,0.8506621530638556,0.8598839162253009,0.8663296363111428,0.8811875275832568,0.8874799988413189,0.8609736656330824,0.8827823554589793,0.9181375472914732,0.9374254163714184,0.9883936178194137,0.9740321290753009,0.9307887673447572,0.8809931239739486,0.8505143493567964,0.8207043298892227,0.8560201493417159,0.8534850692589941,0.799674940499389,0.7137345411341087,0.7053499167274726,0.6970786479473174,0.7098695935003141,0.7501172392205708,0.8077803280236564,0.842857956234119,0.8668239219600311,0.837591480305103,0.761476191003247,0.7501465392863791,0.7361413007018838,0.7363301061729155,0.7442436695960737,0.7224595283956674,0.7121408864731684,0.6871365758505652,0.7248039621287541,0.7236319152338835,0.6850801996312077,0.6146374952958897,0.563067191737737,0.6040784685702008,0.6702305656087733,0.6697185813183388,0.588023770644547,0.4398651581339532,0.2901938779608795,0.14207518221958804,0.02974938713012243,0.07661550643652948,0.21912521193519652,0.37322390400222094,0.5356651063687901,0.6770987907935355,0.7016835379464563,0.7039396971659633,0.6979894319146114,0.7054481585473154,0.6869205030635213,0.7186759716412316,0.6888643991592103,0.7028308414182289,0.7527054996117579,0.7806253820208218,0.8081692757325518,0.7542172532967246,0.736418220129404,0.7090472792777041,0.7271267417354546,0.7126531346890941,0.6875749361897299,0.720219095899842,0.7077175570803487,0.6823230546854715,0.7023040197465775,0.6950433694210796,0.6615065819048409,0.6273515576687609,0.5694090080012435,0.5202434027744776,0.5714302751125917,0.6662260326323715,0.6564780293464096,0.5574647316913817,0.4034603374116754,0.25250993652979314,0.09867967831406599,0.02247512159661813,0.1112755570917594,0.25993470814249164,0.4156658094518937,0.5650811598990195,0.6876629297105046,0.6807196860083611,0.7072605015557238,0.6993463493609564,0.7073149562734526,0.7048254314456752,0.6909410480924834,0.6778070125118951,0.7136689647687042,0.7727413584747547,0.8194995281063555,0.8053408645838127,0.7426816860583711,0.7051457874724214,0.698127284186083,0.6754889464087608,0.6667723887062706,0.678717231943323,0.6787024131275272,0.6493637534657806,0.6833822066989628,0.6574532880282131,0.6673812740434881,0.6532041236421975,0.6345355759087363,0.556369377792227,0.5211289626305806,0.5778462041579644,0.6664026017436289,0.7295765315589673,0.676467011607464,0.5484311608998196,0.40255675005718583,0.2356313795474012,0.06842642194507143,0.0,0.09107134769585468,0.23933728996452075,0.40450373239356274,0.553725653230595,0.6905072244139321,0.7362071268798704,0.7123382482200107,0.7304346590464537,0.7301772593759752,0.7223605730083484,0.7120655485418164,0.7068661071542577,0.7396648543497806,0.8001293951996953,0.8402633082802771,0.869769152023876,0.8275662761403719,0.7756455815100569,0.7316813605996133,0.723865240588002,0.7183542183734035,0.7280840410210034,0.7262768476627608,0.6903858549746325,0.7010588857075861,0.6996346531098672
0,1,2,3,4,5,6,7,8,9,10,11,12,13,14,15,16,17,18,19,20,21,22,23,24,25,26,27,28,29,30,31,32,33,34,35,36,37,38,39,40,41,42,43,44,45,46,47,48,49,50,51,52,53,54,55,56,57,58,59,60,61,62,63,64,65,66,67,68,69,70,71,72,73,74,75,76,77,78,79,80,81,82,83,84,85,86,87,88,89,90,91,92,93,94,95,96,97,98,99,100,101,102,103,104,105,106,107,108,109,110,111,112,113,114,115,116,117,118,119,120,121,122,123,124,125,126,127,128,129,130,131,132,133,134,135,136,137,138,139,140,141,142,143,144,145,146,147,148,149,150,151,152,153,154,155,156,157,158,159,160,161,162,163,164,165,166,167,168,169,170,171,172,173,174,175,176,177,178,179,180,181,182,183,184,185,186,187,188,189,190,191,192,193,194,195,196,197,198,199,200,201,202,203,204,205,206,207,208,209,210,211,212,213,214,215,216,217,218,219,220,221,222,223,224,225,226,227,228,229,230,231,232,233,234,235,236,237,238,239,240,241,242,243,244,245,246,247,248,249,250,251,252,253,254
0.8348464166520753,0.8350259624196656,0.8484147075373274,0.8501831555152792,0.8521937355229969,0.8505441231951414,0.8520601175589313,0.8811852488083192,0.9137115523473449,0.9404173307376746,1.0,0.9946150539733036,0.9465310214209612,0.8952469454810554,0.8379948366314789,0.8444813511226572,0.854642303537533,0.8859771717851634,0.8700499680237197,0.8645311399382418,0.8674396069289259,0.8858682147956358,0.835223591565577,0.724345475313803,0.5910736734336455,0.5964111100782663,0.733980788289549,0.833496899862495,0.8472291415989384,0.824832728151982,0.7347242468078461,0.6981935126122902,0.7382957489444069,0.7865740802921541,0.8161513454687439,0.8108663510528089,0.8165746722757641,0.8137523399860731,0.8503031606011788,0.8372191480796385,0.8100903448201677,0.8187553541950585,0.8316872860788402,0.8656905801718908,0.8988956351664568,0.9482102635059597,0.9134984245161579,0.8577020601634722,0.8288031687189328,0.8069425517302484,0.8376151949567827,0.8641751223049345,0.8401937624388429,0.8333189686761555,0.8533168176700316,0.8550525669190554,0.7945795857326541,0.6708207535495747,0.5294856199032916,0.5396416693006696,0.6711713507238324,0.7686604211557535,0.8024046441523573,0.7786252255992183,0.6857783882830182,0.6909401894282761,0.7544900572127222,0.7880761315663145,0.8108011072424937,0.8232786371356555,0.8319829868556576,0.8241967527712566,0.8462571638386418,0.8502319426643261,0.835494112014616,0.8450659750074001,0.8674802503211652,0.8982251468164018,0.9378192725806809,0.9446236268388946,0.9196045103801262,0.8783159321135638,0.8491576767586189,0.8428275173743884,0.8521628857501051,0.8272357660301415,0.8300594170324933,0.8352083688096483,0.8483872562095094,0.789223634736059,0.6705076539814119,0.5334582775780445,0.5312342954199005,0.667298336426386,0.7648582319056221,0.823388526684691,0.8017195975885203,0.7191625459680493,0.7265782990404297,0.7972710762889337,0.8349527137569668,0.8518254439020474,0.8506621530638556,0.8598839162253009,0.8663296363111428,0.8811875275832568,0.8874799988413189,0.8609736656330824,0.8827823554589793,0.9181375472914732,0.9374254163714184,0.9883936178194137,0.9740321290753009,0.9307887673447572,0.8809931239739486,0.8505143493567964,0.8207043298892227,0.8560201493417159,0.8534850692589941,0.799674940499389,0.7137345411341087,0.7053499167274726,0.6970786479473174,0.7098695935003141,0.7501172392205708,0.8077803280236564,0.842857956234119,0.8668239219600311,0.837591480305103,0.761476191003247,0.7501465392863791,0.7361413007018838,0.7363301061729155,0.7442436695960737,0.7224595283956674,0.7121408864731684,0.6871365758505652,0.7248039621287541,0.7236319152338835,0.6850801996312077,0.6146374952958897,0.563067191737737,0.6040784685702008,0.6702305656087733,0.6697185813183388,0.588023770644547,0.4398651581339532,0.2901938779608795,0.14207518221958804,0.02974938713012243,0.07661550643652948,0.21912521193519652,0.37322390400222094,0.5356651063687901,0.6770987907935355,0.7016835379464563,0.7039396971659633,0.6979894319146114,0.7054481585473154,0.6869205030635213,0.7186759716412316,0.6888643991592103,0.7028308414182289,0.7527054996117579,0.7806253820208218,0.8081692757325518,0.7542172532967246,0.736418220129404,0.7090472792777041,0.7271267417354546,0.7126531346890941,0.6875749361897299,0.720219095899842,0.7077175570803487,0.6823230546854715,0.7023040197465775,0.6950433694210796,0.6615065819048409,0.6273515576687609,0.5694090080012435,0.5202434027744776,0.5714302751125917,0.6662260326323715,0.6564780293464096,0.5574647316913817,0.4034603374116754,0.25250993652979314,0.09867967831406599,0.02247512159661813,0.1112755570917594,0.25993470814249164,0.4156658094518937,0.5650811598990195,0.6876629297105046,0.6807196860083611,0.7072605015557238,0.6993463493609564,0.7073149562734526,0.7048254314456752,0.6909410480924834,0.6778070125118951,0.7136689647687042,0.7727413584747547,0.8194995281063555,0.8053408645838127,0.7426816860583711,0.7051457874724214,0.698127284186083,0.6754889464087608,0.6667723887062706,0.678717231943323,0.6787024131275272,0.6493637534657806,0.6833822066989628,0.6574532880282131,0.6673812740434881,0.6532041236421975,0.6345355759087363,0.556369377792227,0.5211289626305806,0.5778462041579644,0.6664026017436289,0.7295765315589673,0.676467011607464,0.5484311608998196,0.40255675005718583,0.2356313795474012,0.06842642194507143,0.0,0.09107134769585468,0.23933728996452075,0.40450373239356274,0.553725653230595,0.6905072244139321,0.7362071268798704,0.7123382482200107,0.7304346590464537,0.7301772593759752,0.7223605730083484,0.7120655485418164,0.7068661071542577,0.7396648543497806,0.8001293951996953,0.8402633082802771,0.869769152023876,0.8275662761403719,0.7756455815100569,0.7316813605996133,0.723865240588002,0.7183542183734035,0.7280840410210034,0.7262768476627608,0.6903858549746325,0.7010588857075861,0.6996346531098672
0,1,2,3,4,5,6,7,8,9,10,11,12,13,14,15,16,17,18,19,20,21,22,23,24,25,26,27,28,29,30,31,32,33,34,35,36,37,38,39,40,41,42,43,44,45,46,47,48,49,50,51,52,53,54,55,56,57,58,59,60,61,62,63,64,65,66,67,68,69,70,71,72,73,74,75,76,77,78,79,80,81,82,83,84,85,86,87,88,89,90,91,92,93,94,95,96,97,98,99,100,101,102,103,104,105,106,107,108,109,110,111,112,113,114,115,116,117,118,119,120,121,122,123,124,125,126,127,128,129,130,131,132,133,134,135,136,137,138,139,140,141,142,143,144,145,146,147,148,149,150,151,152,153,154,155,156,157,158,159,160,161,162,163,164,165,166,167,168,169,170,171,172,173,174,175,176,177,178,179,180,181,182,183,184,185,186,187,188,189,190,191,192,193,194,195,196,197,198,199,200,201,202,203,204,205,206,207,208,209,210,211,212,213,214,215,216,217,218,219,220,221,222,223,224,225,226,227,228,229,230,231,232,233,234,235,236,237,238,239,240,241,242,243,244,245,246,247,248,249,250,251,252,253,254
0.6339684255825628,0.6436360883262227,0.6651424994987254,0.67552864439131,0.6590953324975808,0.6184391076016387,0.5681132729689886,0.52367253696963,0.4837891893617696,0.4950069679401672,0.5502029675252813,0.6201388233013336,0.694591522387118,0.7263033519050173,0.7364225162547484,0.7583627188766546,0.7878923086378964,0.856626840701086,0.9224691458225971,0.986591724726384,1.0,0.931672594449847,0.8388981107267952,0.7433561321233295,0.644661005238528,0.5449932372871347,0.4926708278562426,0.5798230607188879,0.6785570766039708,0.7674935989522416,0.7803049178202031,0.7603918398873724,0.7346313140951048,0.6987165981317793,0.6988490997809382,0.7248385156867729,0.7215119691742937,0.7286614486301404,0.7324459681342472,0.7239422951149477,0.7195854777015045,0.7236444022962703,0.7321042179302943,0.7335002470423535,0.7063730069964316,0.6877915548211297,0.6672663626881472,0.6631117145587377,0.6343727419184506,0.5780935369244302,0.5257395668534999,0.4771989932422622,0.47192994076024597,0.5207172096007526,0.5843547207330686,0.632171898142837,0.6580230446023325,0.6616559257106975,0.688019123580303,0.7315416691956926,0.8052494697944854,0.8683707906017228,0.8987039154696217,0.8492560793592898,0.770785938853487,0.6779552695231286,0.5732408587107729,0.47468943493238,0.46789802692139437,0.5610876905626996,0.6468005363486466,0.6645365283622615,0.6403959735739013,0.6220341388693886,0.5792285459625712,0.5696433974978241,0.599660288772744,0.6059434229365919,0.6303724030317741,0.6431132074709178,0.6348653808400142,0.6275419583737243,0.6409574177212822,0.6367256859204029,0.6405806496185185,0.6285054102981324,0.6154714553524419,0.6185846651530067,0.585280290692971,0.5392404576658509,0.4915379711924679,0.4402144802803827,0.4212427045324465,0.45786644970433255,0.5130937371391036,0.5699120916241558,0.6094428920667809,0.6286378763633738,0.6084545866564337,0.6325661792536725,0.6603004717224059,0.7300477275380151,0.8099533638491079,0.8699792607796977,0.8614254853477972,0.7955010248967125,0.6881501052315064,0.5885091509951743,0.48897423198015044,0.3871486445129664,0.3036661147709143,0.35774313548531156,0.45931066059617454,0.5634308502328622,0.6543647097516323,0.6769133039608128,0.6473170874688319,0.6423420742253403,0.6388316878779183,0.595880439288154,0.5788959161335105,0.6098851302614179,0.6313319226046286,0.662515451305965,0.6261619547738961,0.5671874402512063,0.5304996766233256,0.5123396415321886,0.5157785646248518,0.5557601409396895,0.5741894335513393,0.5762012141256094,0.5543819818371447,0.460870809884256,0.3541123300214015,0.25157250760281524,0.14746414290849064,0.04619823052587524,0.0,0.06749609479357277,0.1753715870940069,0.27772234913039284,0.39115563846572776,0.4974235566926195,0.5958434650301916,0.6941051416334414,0.7861889126783765,0.7937107850189173,0.7252422717976739,0.6435897707652347,0.5907652168749395,0.5604726841379408,0.53971210037197,0.5315468307682845,0.49856598413222875,0.4424552742596908,0.39146425987639466,0.3535025889777499,0.3626004990462195,0.41710793021955794,0.4673778664017445,0.5144834312698485,0.5469891294625087,0.5560235318414835,0.5684886540046858,0.5734858556996283,0.5713365876659355,0.5695664743399806,0.5420582135212122,0.5399166589751663,0.5490083526671761,0.5430442535435573,0.5234422191982873,0.4969037634884317,0.4955599801560191,0.5374090800981102,0.5696412302608751,0.5767042229424106,0.5107572157307554,0.41331504720746004,0.310388483530164,0.2085707541532793,0.15316653914552925,0.21850997922887494,0.32754518565889557,0.4295737842419971,0.5336696097539129,0.6270603472378937,0.7187564128434696,0.7956595857782935,0.7874651819822627,0.7090920143301225,0.6479108325827054,0.6148315807702027,0.6016326583137701,0.5928994441474278,0.5506109480710615,0.5004880921781596,0.4405576740005208,0.39204784099956,0.3968154294066406,0.4482084963224571,0.4996152563970715,0.5492527686188979,0.5957369562375576,0.6048424402884431,0.6247717546840823,0.6342651648515765,0.6579122720910906,0.6622060559549294,0.6540439414471444,0.6590421405484874,0.666312169263716,0.6677439300422945,0.6639836161209143,0.6598349778053043,0.6372207403568453,0.6108359714173548,0.6444350655474969,0.6716333693226724,0.6976935525562333,0.6637672361330402,0.569416956724444,0.46370003109025015,0.37909861303346704,0.28436186845930145,0.1894960859902186,0.16742057318806047,0.2510936422992298,0.35669841490123133,0.4580739519100234,0.5601472970781831,0.6607980808646396,0.7591131691759374,0.85378434971999,0.9175133025274831,0.8658414306114319,0.7980570852567404,0.7339329808867925,0.6898540797226294,0.6719037796317111,0.6468731085773589,0.6287320257748936,0.5699203302632041,0.5011838640632971,0.4448489892359371,0.3997174944193107,0.40732801641136307,0.4449596478971971,0.49314134604164606,0.5430445359849454,0.5804890060432188,0.5870516077259511,0.581842065816387,0.5709790258225174
0,1,2,3,4,5,6,7,8,9,10,11,12,13,14,15,16,17,18,19,20,21,22,23,24,25,26,27,28,29,30,31,32,33,34,35,36,37,38,39,40,41,42,43,44,45,46,47,48,49,50,51,52,53,54,55,56,57,58,59,60,61,62,63,64,65,66,67,68,69,70,71,72,73,74,75,76,77,78,79,80,81,82,83,84,85,86,87,88,89,90,91,92,93,94,95,96,97,98,99,100,101,102,103,104,105,106,107,108,109,110,111,112,113,114,115,116,117,118,119,120,121,122,123,124,125,126,127,128,129,130,131,132,133,134,135,136,137,138,139,140,141,142,143,144,145,146,147,148,149,150,151,152,153,154,155,156,157,158,159,160,161,162,163,164,165,166,167,168,169,170,171,172,173,174,175,176,177,178,179,180,181,182,183,184,185,186,187,188,189,190,191,192,193,194,195,196,197,198,199,200,201,202,203,204,205,206,207,208,209,210,211,212,213,214,215,216,217,218,219,220,221,222,223,224,225,226,227,228,229,230,231,232,233,234,235,236,237,238,239,240,241,242,243,244,245,246,247,248,249,250,251,252,253,254
0.6339684255825628,0.6436360883262227,0.6651424994987254,0.67552864439131,0.6590953324975808,0.6184391076016387,0.5681132729689886,0.52367253696963,0.4837891893617696,0.4950069679401672,0.5502029675252813,0.6201388233013336,0.694591522387118,0.7263033519050173,0.7364225162547484,0.7583627188766546,0.7878923086378964,0.856626840701086,0.9224691458225971,0.986591724726384,1.0,0.931672594449847,0.8388981107267952,0.7433561321233295,0.644661005238528,0.5449932372871347,0.4926708278562426,0.5798230607188879,0.6785570766039708,0.7674935989522416,0.7803049178202031,0.7603918398873724,0.7346313140951048,0.6987165981317793,0.6988490997809382,0.7248385156867729,0.7215119691742937,0.7286614486301404,0.7324459681342472,0.7239422951149477,0.7195854777015045,0.7236444022962703,0.7321042179302943,0.7335002470423535,0.7063730069964316,0.6877915548211297,0.6672663626881472,0.6631117145587377,0.6343727419184506,0.5780935369244302,0.5257395668534999,0.4771989932422622,0.47192994076024597,0.5207172096007526,0.5843547207330686,0.632171898142837,0.6580230446023325,0.6616559257106975,0.688019123580303,0.7315416691956926,0.8052494697944854,0.8683707906017228,0.8987039154696217,0.8492560793592898,0.770785938853487,0.6779552695231286,0.5732408587107729,0.47468943493238,0.46789802692139437,0.5610876905626996,0.6468005363486466,0.6645365283622615,0.6403959735739013,0.6220341388693886,0.5792285459625712,0.5696433974978241,0.599660288772744,0.6059434229365919,0.6303724030317741,0.6431132074709178,0.6348653808400142,0.6275419583737243,0.6409574177212822,0.6367256859204029,0.6405806496185185,0.6285054102981324,0.6154714553524419,0.6185846651530067,0.585280290692971,0.5392404576658509,0.4915379711924679,0.4402144802803827,0.4212427045324465,0.45786644970433255,0.5130937371391036,0.5699120916241558,0.6094428920667809,0.6286378763633738,0.6084545866564337,0.6325661792536725,0.6603004717224059,0.7300477275380151,0.8099533638491079,0.8699792607796977,0.8614254853477972,0.7955010248967125,0.6881501052315064,0.5885091509951743,0.48897423198015044,0.3871486445129664,0.3036661147709143,0.35774313548531156,0.45931066059617454,0.5634308502328622,0.6543647097516323,0.6769133039608128,0.6473170874688319,0.6423420742253403,0.6388316878779183,0.595880439288154,0.5788959161335105,0.6098851302614179,0.6313319226046286,0.662515451305965,0.6261619547738961,0.5671874402512063,0.5304996766233256,0.5123396415321886,0.5157785646248518,0.5557601409396895,0.5741894335513393,0.5762012141256094,0.5543819818371447,0.460870809884256,0.3541123300214015,0.25157250760281524,0.14746414290849064,0.04619823052587524,0.0,0.06749609479357277,0.1753715870940069,0.27772234913039284,0.39115563846572776,0.4974235566926195,0.5958434650301916,0.6941051416334414,0.7861889126783765,0.7937107850189173,0.7252422717976739,0.6435897707652347,0.5907652168749395,0.5604726841379408,0.53971210037197,0.5315468307682845,0.49856598413222875,0.4424552742596908,0.39146425987639466,0.3535025889777499,0.3626004990462195,0.41710793021955794,0.4673778664017445,0.5144834312698485,0.5469891294625087,0.5560235318414835,0.5684886540046858,0.5734858556996283,0.5713365876659355,0.5695664743399806,0.5420582135212122,0.5399166589751663,0.5490083526671761,0.5430442535435573,0.5234422191982873,0.4969037634884317,0.4955599801560191,0.5374090800981102,0.5696412302608751,0.5767042229424106,0.5107572157307554,0.41331504720746004,0.310388483530164,0.2085707541532793,0.15316653914552925,0.21850997922887494,0.32754518565889557,0.4295737842419971,0.5336696097539129,0.6270603472378937,0.7187564128434696,0.7956595857782935,0.7874651819822627,0.7090920143301225,0.6479108325827054,0.6148315807702027,0.6016326583137701,0.5928994441474278,0.5506109480710615,0.5004880921781596,0.4405576740005208,0.39204784099956,0.3968154294066406,0.4482084963224571,0.4996152563970715,0.5492527686188979,0.5957369562375576,0.6048424402884431,0.6247717546840823,0.6342651648515765,0.6579122720910906,0.6622060559549294,0.6540439414471444,0.6590421405484874,0.666312169263716,0.6677439300422945,0.6639836161209143,0.6598349778053043,0.6372207403568453,0.6108359714173548,0.6444350655474969,0.6716333693226724,0.6976935525562333,0.6637672361330402,0.569416956724444,0.46370003109025015,0.37909861303346704,0.28436186845930145,0.1894960859902186,0.16742057318806047,0.2510936422992298,0.35669841490123133,0.4580739519100234,0.5601472970781831,0.6607980808646396,0.7591131691759374,0.85378434971999,0.9175133025274831,0.8658414306114319,0.7980570852567404,0.7339329808867925,0.6898540797226294,0.6719037796317111,0.6468731085773589,0.6287320257748936,0.5699203302632041,0.5011838640632971,0.4448489892359371,0.3997174944193107,0.40732801641136307,0.4449596478971971,0.49314134604164606,0.5430445359849454,0.5804890060432188,0.5870516077259511,0.581842065816387,0.5709790258225174
0,1,2,3,4,5,6,7,8,9,10,11,12,13,14,15,16,17,18,19,20,21,22,23,24,25,26,27,28,29,30,31,32,33,34,35,36,37,38,39,40,41,42,43,44,45,46,47,48,49,50,51,52,53,54,55,56,57,58,59,60,61,62,63,64,65,66,67,68,69,70,71,72,73,74,75,76,77,78,79,80,81,82,83,84,85,86,87,88,89,90,91,92,93,94,95,96,97,98,99,100,101,102,103,104,105,106,107,108,109,110,111,112,113,114,115,116,117,118,119,120,121,122,123,124,125,126,127,128,129,130,131,132,133,134,135,136,137,138,139,140,141,142,143,144,145,146,147,148,149,150,151,152,153,154,155,156,157,158,159,160,161,162,163,164,165,166,167,168,169,170,171,172,173,174,175,176,177,178,179,180,181,182,183,184,185,186,187,188,189,190,191,192,193,194,195,196,197,198,199,200,201,202,203,204,205,206,207,208,209,210,211,212,213,214,215,216,217,218,219,220,221,222,223,224,225,226,227,228,229,230,231,232,233,234,235,236,237,238,239,240,241,242,243,244,245,246,247,248,249,250,251,252,253,254
0.7108166730844552,0.7201429885943309,0.7048919380467966,0.61780338727905,0.5283788895883896,0.41425548031048454,0.32770979940203127,0.3638777951039591,0.4653565662713044,0.5537343583385619,0.6251464582783512,0.6612021557730543,0.6763040362736765,0.6904605669885502,0.7126551104762857,0.7818817374875495,0.9095658511783355,0.976942721430925,0.8839940133912911,0.7198481502150607,0.7089746444705778,0.7697716167208632,0.7539570879487512,0.7398979581668943,0.6968069718226069,0.7097097199289513,0.7217534873836549,0.7240047375898273,0.7409485475520405,0.7092437517041015,0.6264210069241809,0.5186119911332048,0.40926278992645937,0.34043648121733217,0.40138871909848906,0.5021862862577571,0.5927171178995456,0.6490732910625416,0.6838030409505631,0.7293746343304424,0.7282790086113744,0.7421185000268142,0.8122452687872119,0.9565720090631631,1.0,0.8762968226593832,0.7064396003519855,0.570098419314994,0.6319727352048776,0.7382302098115607,0.7665361797924204,0.7426443603242632,0.6784549937833351,0.6169994542742412,0.6694045931249359,0.7196977339625317,0.7443640183018951,0.7395339886150962,0.694075880993327,0.6226530047541603,0.5282044810571493,0.4065920906584699,0.27975552231320133,0.2668162969767227,0.361312436870743,0.45919632703665947,0.540771889886809,0.6089252418545685,0.6775673673626113,0.7228797822085751,0.7479558334189162,0.7442157015062305,0.8515956898939416,0.902303188001703,0.7848946823006298,0.6245782959292683,0.5663898792628679,0.6727084208642662,0.7347107448211538,0.721891437260699,0.6894081386514905,0.6052392848706196,0.617639919762051,0.6894107872036717,0.7062207083777547,0.7225821860057939,0.7479658931981854,0.7234682396267171,0.6499781784930372,0.5404542512666195,0.42911362581163637,0.3213350190102062,0.3295742616641162,0.42105688806807073,0.5179961736467629,0.6112501096301424,0.6627525293063057,0.7030026688628137,0.7246535901352784,0.7439256111156718,0.7958721275354108,0.9004577074002045,0.8781722301586843,0.7422009625521282,0.6742834533376261,0.7374419948150752,0.7519697205410454,0.7276995541833395,0.658698138276252,0.6673362402373222,0.7200195524718671,0.7316446727764063,0.7463778066853841,0.7207687156113414,0.6578263420656185,0.5788407063964067,0.46811164401998795,0.3700231727862153,0.35255950565343586,0.44647892933512434,0.5375314023865405,0.6089888267443921,0.6417943202990726,0.5715066242503113,0.5100027306594619,0.43838081603606405,0.34473090170931275,0.253006009893614,0.17706794883982635,0.21566234370576964,0.316711088158919,0.431054458434347,0.5179509974977456,0.5866535975650908,0.6025131445386354,0.5936852046080414,0.5844731238048091,0.5460136116725449,0.5565788452748581,0.615054832867056,0.6357963878259625,0.5887725785993476,0.457502736365595,0.2901927107408966,0.13637798795512968,0.11364439806753523,0.26152118518440837,0.4339143885847925,0.5924596374977291,0.5975502092769434,0.6061031413118769,0.5973908459608621,0.5740168788782611,0.5215106350839571,0.4508239795825144,0.34814032870884404,0.25024144343495625,0.16650957349923878,0.15731926068401947,0.24182120818796093,0.35781730998224237,0.4707016502284951,0.5709737947187765,0.6270027334229678,0.6058231111279957,0.5924916272704168,0.5598618796020398,0.4873763800051316,0.4866038244454298,0.5719846858798423,0.6154045264686676,0.586623421577606,0.46774619288105956,0.300739245763026,0.13146294566153838,0.0,0.04648181104851812,0.21092386694025933,0.3837617520933412,0.5524153929733657,0.5969066883574303,0.5969181189971344,0.5933537601710386,0.5518127314500267,0.49719938391780616,0.4317240615610345,0.34965525836657374,0.25044669736914393,0.15386275650947923,0.10714077167004721,0.19092529341872488,0.3135377537504569,0.42794065740848897,0.5327461394995732,0.5965342157258737,0.6162372879553191,0.5977089058744278,0.5557428148158676,0.5034747047733648,0.5192548454506589,0.6002847320356643,0.6423123859245186,0.59573454531915,0.4494933389968212,0.26729449622212265,0.11956982354536727,0.10188321803305467,0.24501627658808367,0.42398573504084425,0.5907280222874407,0.6650806915912186,0.6230635729748579,0.6033692133778441,0.5762888071390924,0.533551530947106,0.4721935438298859,0.3788927200550276,0.2938132419449202,0.21200575560285007,0.20989691551220613,0.2980817305670467,0.4229177579756085,0.5377823884987345,0.6069015834987832,0.615184703323294,0.5941679321066324,0.6033049207671404,0.555802888089266,0.5572351787147438,0.601654367929445,0.6278462544458323,0.6162476973117705,0.5230531431694532,0.36641377286275834,0.23305571060701524,0.26562845716923267,0.43125892746824857,0.5982959460534616,0.7219411591783178,0.6413714644873796,0.5732366848989399,0.5487638136873985,0.5368873089432915,0.524322052336009,0.4895252263836012,0.4053300743229489,0.30498373927641875,0.21099861587431512,0.1761996185645529,0.25898097903288786,0.3628362039790707,0.4710118572508728,0.5633393359486272,0.5883113859483142,0.5907542679941669
0,1,2,3,4,5,6,7,8,9,10,11,12,13,14,15,16,17,18,19,20,21,22,23,24,25,26,27,28,29,30,31,32,33,34,35,36,37,38,39,40,41,42,43,44,45,46,47,48,49,50,51,52,53,54,55,56,57,58,59,60,61,62,63,64,65,66,67,68,69,70,71,72,73,74,75,76,77,78,79,80,81,82,83,84,85,86,87,88,89,90,91,92,93,94,95,96,97,98,99,100,101,102,103,104,105,106,107,108,109,110,111,112,113,114,115,116,117,118,119,120,121,122,123,124,125,126,127,128,129,130,131,132,133,134,135,136,137,138,139,140,141,142,143,144,145,146,147,148,149,150,151,152,153,154,155,156,157,158,159,160,161,162,163,164,165,166,167,168,169,170,171,172,173,174,175,176,177,178,179,180,181,182,183,184,185,186,187,188,189,190,191,192,193,194,195,196,197,198,199,200,201,202,203,204,205,206,207,208,209,210,211,212,213,214,215,216,217,218,219,220,221,222,223,224,225,226,227,228,229,230,231,232,233,234,235,236,237,238,239,240,241,242,243,244,245,246,247,248,249,250,251,252,253,254
0.7108166730844552,0.7201429885943309,0.7048919380467966,0.61780338727905,0.5283788895883896,0.41425548031048454,0.32770979940203127,0.3638777951039591,0.4653565662713044,0.5537343583385619,0.6251464582783512,0.6612021557730543,0.6763040362736765,0.6904605669885502,0.7126551104762857,0.7818817374875495,0.9095658511783355,0.976942721430925,0.8839940133912911,0.7198481502150607,0.7089746444705778,0.7697716167208632,0.7539570879487512,0.7398979581668943,0.6968069718226069,0.7097097199289513,0.7217534873836549,0.7240047375898273,0.7409485475520405,0.7092437517041015,0.6264210069241809,0.5186119911332048,0.40926278992645937,0.34043648121733217,0.40138871909848906,0.5021862862577571,0.5927171178995456,0.6490732910625416,0.6838030409505631,0.7293746343304424,0.7282790086113744,0.7421185000268142,0.8122452687872119,0.9565720090631631,1.0,0.8762968226593832,0.7064396003519855,0.570098419314994,0.6319727352048776,0.7382302098115607,0.7665361797924204,0.7426443603242632,0.6784549937833351,0.6169994542742412,0.6694045931249359,0.7196977339625317,0.7443640183018951,0.7395339886150962,0.694075880993327,0.6226530047541603,0.5282044810571493,0.4065920906584699,0.27975552231320133,0.2668162969767227,0.361312436870743,0.45919632703665947,0.540771889886809,0.6089252418545685,0.6775673673626113,0.7228797822085751,0.7479558334189162,0.7442157015062305,0.8515956898939416,0.902303188001703,0.7848946823006298,0.6245782959292683,0.5663898792628679,0.6727084208642662,0.7347107448211538,0.721891437260699,0.6894081386514905,0.6052392848706196,0.617639919762051,0.6894107872036717,0.7062207083777547,0.7225821860057939,0.7479658931981854,0.7234682396267171,0.6499781784930372,0.5404542512666195,0.42911362581163637,0.3213350190102062,0.3295742616641162,0.42105688806807073,0.5179961736467629,0.6112501096301424,0.6627525293063057,0.7030026688628137,0.7246535901352784,0.7439256111156718,0.7958721275354108,0.9004577074002045,0.8781722301586843,0.7422009625521282,0.6742834533376261,0.7374419948150752,0.7519697205410454,0.7276995541833395,0.658698138276252,0.6673362402373222,0.7200195524718671,0.7316446727764063,0.7463778066853841,0.7207687156113414,0.6578263420656185,0.5788407063964067,0.46811164401998795,0.3700231727862153,0.35255950565343586,0.44647892933512434,0.5375314023865405,0.6089888267443921,0.6417943202990726,0.5715066242503113,0.5100027306594619,0.43838081603606405,0.34473090170931275,0.253006009893614,0.17706794883982635,0.21566234370576964,0.316711088158919,0.431054458434347,0.5179509974977456,0.5866535975650908,0.6025131445386354,0.5936852046080414,0.5844731238048091,0.5460136116725449,0.5565788452748581,0.615054832867056,0.6357963878259625,0.5887725785993476,0.457502736365595,0.2901927107408966,0.13637798795512968,0.11364439806753523,0.26152118518440837,0.4339143885847925,0.5924596374977291,0.5975502092769434,0.6061031413118769,0.5973908459608621,0.5740168788782611,0.5215106350839571,0.4508239795825144,0.34814032870884404,0.25024144343495625,0.16650957349923878,0.15731926068401947,0.24182120818796093,0.35781730998224237,0.4707016502284951,0.5709737947187765,0.6270027334229678,0.6058231111279957,0.5924916272704168,0.5598618796020398,0.4873763800051316,0.4866038244454298,0.5719846858798423,0.6154045264686676,0.586623421577606,0.46774619288105956,0.300739245763026,0.13146294566153838,0.0,0.04648181104851812,0.21092386694025933,0.3837617520933412,0.5524153929733657,0.5969066883574303,0.5969181189971344,0.5933537601710386,0.5518127314500267,0.49719938391780616,0.4317240615610345,0.34965525836657374,0.25044669736914393,0.15386275650947923,0.10714077167004721,0.19092529341872488,0.3135377537504569,0.42794065740848897,0.5327461394995732,0.5965342157258737,0.6162372879553191,0.5977089058744278,0.5557428148158676,0.5034747047733648,0.5192548454506589,0.6002847320356643,0.6423123859245186,0.59573454531915,0.4494933389968212,0.26729449622212265,0.11956982354536727,0.10188321803305467,0.24501627658808367,0.42398573504084425,0.5907280222874407,0.6650806915912186,0.6230635729748579,0.6033692133778441,0.5762888071390924,0.533551530947106,0.4721935438298859,0.3788927200550276,0.2938132419449202,0.21200575560285007,0.20989691551220613,0.2980817305670467,0.4229177579756085,0.5377823884987345,0.6069015834987832,0.615184703323294,0.5941679321066324,0.6033049207671404,0.555802888089266,0.5572351787147438,0.601654367929445,0.6278462544458323,0.6162476973117705,0.5230531431694532,0.36641377286275834,0.23305571060701524,0.26562845716923267,0.43125892746824857,0.5982959460534616,0.7219411591783178,0.6413714644873796,0.5732366848989399,0.5487638136873985,0.5368873089432915,0.524322052336009,0.4895252263836012,0.4053300743229489,0.30498373927641875,0.21099861587431512,0.1761996185645529,0.25898097903288786,0.3628362039790707,0.4710118572508728,0.5633393359486272,0.5883113859483142,0.5907542679941669
0,1,2,3,4,5,6,7,8,9,10,11,12,13,14,15,16,17,18,19,20,21,22,23,24,25,26,27,28,29,30,31,32,33,34,35,36,37,38,39,40,41,42,43,44,45,46,47,48,49,50,51,52,53,54,55,56,57,58,59,60,61,62,63,64,65,66,67,68,69,70,71,72,73,74,75,76,77,78,79,80,81,82,83,84,85,86,87,88,89,90,91,92,93,94,95,96,97,98,99,100,101,102,103,104,105,106,107,108,109,110,111,112,113,114,115,116,117,118,119,120,121,122,123,124,125,126,127,128,129,130,131,132,133,134,135,136,137,138,139,140,141,142,143,144,145,146,147,148,149,150,151,152,153,154,155,156,157,158,159,160,161,162,163,164,165,166,167,168,169,170,171,172,173,174,175,176,177,178,179,180,181,182,183,184,185,186,187,188,189,190,191,192,193,194,195,196,197,198,199,200,201,202,203,204,205,206,207,208,209,210,211,212,213,214,215,216,217,218,219,220,221,222,223,224,225,226,227,228,229,230,231,232,233,234,235,236,237,238,239,240,241,242,243,244,245,246,247,248,249,250,251,252,253,254
0.8210398685562941,0.8032522968611355,0.8024128860977273,0.8081880953478435,0.8091803568432121,0.7960906843474562,0.7796870095308892,0.7786856530009831,0.777388063812724,0.796758926575398,0.803330472832448,0.7939244858241474,0.7669202197388956,0.7088311531230509,0.6358223796300135,0.5549102386067293,0.4706526049224904,0.40995068748347196,0.46344711003864036,0.5501721006366771,0.6315587828705922,0.7210795576789646,0.8029525956483481,0.8854626469143294,0.942476682987752,0.9168903649422087,0.8540472012693943,0.8188119068685118,0.7968487310913599,0.7649298634674035,0.7825629770335303,0.8042781279152484,0.8011158457008574,0.803283573006657,0.7911525809311855,0.7904912135823421,0.7927831213789138,0.776356149055881,0.7804873852683134,0.7736604251615862,0.7669590474437042,0.7788965004760346,0.7805104491038584,0.7834709644118918,0.7678965862772864,0.7684438239663656,0.7962442378168377,0.8043291385713498,0.8162867640178286,0.8138756174575461,0.812280675121752,0.7928440862116461,0.7408976634714899,0.668602604136036,0.5911261729299271,0.5180964090100075,0.5464539147445044,0.6311102936668529,0.7156994642738377,0.7988783742916146,0.8802833222670989,0.9344520764280622,0.8995232511599707,0.8397697120771708,0.8197885327633447,0.7894964005494962,0.7694873666264781,0.7836316722909407,0.7958564039740581,0.7954728060792859,0.795279358166683,0.7992028895897965,0.7961979261406176,0.794412762115998,0.796000209686144,0.7861783907028366,0.7886955025820848,0.7946802553709376,0.7949299293497936,0.7993773996909266,0.8079021526447454,0.8166180438198862,0.8287742269318248,0.8278180800653392,0.8567651017238649,0.8564841741445781,0.8508713019301768,0.8404351767232077,0.801092509514058,0.7404494702070619,0.6619552691280421,0.5807030842491698,0.5316001397954238,0.5944769230295115,0.6848656671808604,0.773755088109829,0.8542898526318765,0.9378624384793468,1.0000000000000002,0.9786121571629256,0.912028580539346,0.8654387302994444,0.8358591983949915,0.7950007990483579,0.7868058512176062,0.805045525700735,0.8050827892044656,0.7941927077427307,0.78486734206615,0.7728429868652744,0.7685851923161462,0.7702441602457679,0.7664583002168299,0.7605673462076539,0.7734211776476665,0.7666656660849622,0.7504380791839769,0.7200133366327546,0.7114040749270643,0.7089697788653682,0.7055970915270742,0.7182463132365366,0.7258848010845187,0.7275089247678082,0.7342359250609956,0.7425540528439474,0.7341022911555284,0.7464640676633707,0.7405049537938797,0.7327047279030208,0.7468609261612322,0.7882773570868207,0.8185832585497048,0.8545671619328468,0.8452661755076403,0.766608381199368,0.682378248496766,0.5927967727774865,0.5118722197336385,0.4239508568093773,0.3366168503486513,0.2554134667261696,0.1720553290932052,0.12676389191176063,0.18096979787617018,0.26343928521447024,0.34807652300432124,0.43754079202586493,0.5182659344406173,0.6025402844964172,0.6819298885762051,0.7544259921777818,0.7977484597900932,0.7984593145012362,0.8149679736888717,0.7940992871136261,0.7610886981350624,0.7543925856782734,0.758915965991384,0.7467553294115239,0.7492776637291729,0.7426292885584098,0.7480205035539236,0.7412778522749217,0.7368337292379039,0.7353345385728922,0.7399633081591415,0.7519500292715076,0.7487231777452228,0.752262454286827,0.7461896729939659,0.7405138666419264,0.7150006178038295,0.7134965625876115,0.7482917948528474,0.7704477845496978,0.8031014038981905,0.8066033275092448,0.7252224367760662,0.6446090892454197,0.5554730650289097,0.4683428767615263,0.38690287218710795,0.29697759837552273,0.21203249658273493,0.12890511491308643,0.04983113052079635,0.0378504682194416,0.10721060726027565,0.1909794663058375,0.27477741143028456,0.3652631441169174,0.4559052896550877,0.5459621121164488,0.6256933495965302,0.6964602350508156,0.747613133666005,0.765088889584167,0.759974405963886,0.7597362880221967,0.7562677777602411,0.7236396245545367,0.7150840858763774,0.7221367151967726,0.733265964302402,0.7320390128926533,0.7269971627473366,0.7177290661460665,0.7260027126601087,0.7345299917647197,0.7230899878780341,0.7341418026249318,0.7446990374311031,0.7430746497050678,0.7513880566126276,0.7522749259179144,0.7452597467539788,0.7321515268684651,0.7102301855135476,0.7184839904000035,0.7623416112652326,0.7851846647257716,0.8119072237989073,0.7589005893417482,0.668889193625448,0.5783312862417516,0.4932837632434768,0.4101027896724383,0.3202783413263075,0.23878210421841306,0.1519264728935812,0.0686493478032586,0.0,0.011752184487879624,0.08753138486214818,0.17178749378540314,0.26222770565291453,0.34721931705590814,0.43043625921478834,0.5174953812374969,0.5987747101931775,0.6826226425504764,0.735008076850592,0.7500508022919126,0.7446911627515591,0.7370588219416947,0.7334652703938043,0.7252092602080797,0.7296794873228969,0.7488746628450322,0.7587654769597612,0.7598860744018456,0.7576259973964523,0.7485240953014791,0.7599314341979813
0,1,2,3,4,5,6,7,8,9,10,11,12,13,14,15,16,17,18,19,20,21,22,23,24,25,26,27,28,29,30,31,32,33,34,35,36,37,38,39,40,41,42,43,44,45,46,47,48,49,50,51,52,53,54,55,56,57,58,59,60,61,62,63,64,65,66,67,68,69,70,71,72,73,74,75,76,77,78,79,80,81,82,83,84,85,86,87,88,89,90,91,92,93,94,95,96,97,98,99,100,101,102,103,104,105,106,107,108,109,110,111,112,113,114,115,116,117,118,119,120,121,122,123,124,125,126,127,128,129,130,131,132,133,134,135,136,137,138,139,140,141,142,143,144,145,146,147,148,149,150,151,152,153,154,155,156,157,158,159,160,161,162,163,164,165,166,167,168,169,170,171,172,173,174,175,176,177,178,179,180,181,182,183,184,185,186,187,188,189,190,191,192,193,194,195,196,197,198,199,200,201,202,203,204,205,206,207,208,209,210,211,212,213,214,215,216,217,218,219,220,221,222,223,224,225,226,227,228,229,230,231,232,233,234,235,236,237,238,239,240,241,242,243,244,245,246,247,248,249,250,251,252,253,254
0.6339684255825628,0.6436360883262227,0.6651424994987254,0.67552864439131,0.6590953324975808,0.6184391076016387,0.5681132729689886,0.52367253696963,0.4837891893617696,0.4950069679401672,0.5502029675252813,0.6201388233013336,0.694591522387118,0.7263033519050173,0.7364225162547484,0.7583627188766546,0.7878923086378964,0.856626840701086,0.9224691458225971,0.986591724726384,1.0,0.931672594449847,0.8388981107267952,0.7433561321233295,0.644661005238528,0.5449932372871347,0.4926708278562426,0.5798230607188879,0.6785570766039708,0.7674935989522416,0.7803049178202031,0.7603918398873724,0.7346313140951048,0.6987165981317793,0.6988490997809382,0.7248385156867729,0.7215119691742937,0.7286614486301404,0.7324459681342472,0.7239422951149477,0.7195854777015045,0.7236444022962703,0.7321042179302943,0.7335002470423535,0.7063730069964316,0.6877915548211297,0.6672663626881472,0.6631117145587377,0.6343727419184506,0.5780935369244302,0.5257395668534999,0.4771989932422622,0.47192994076024597,0.5207172096007526,0.5843547207330686,0.632171898142837,0.6580230446023325,0.6616559257106975,0.688019123580303,0.7315416691956926,0.8052494697944854,0.8683707906017228,0.8987039154696217,0.8492560793592898,0.770785938853487,0.6779552695231286,0.5732408587107729,0.47468943493238,0.46789802692139437,0.5610876905626996,0.6468005363486466,0.6645365283622615,0.6403959735739013,0.6220341388693886,0.5792285459625712,0.5696433974978241,0.599660288772744,0.6059434229365919,0.6303724030317741,0.6431132074709178,0.6348653808400142,0.6275419583737243,0.6409574177212822,0.6367256859204029,0.6405806496185185,0.6285054102981324,0.6154714553524419,0.6185846651530067,0.585280290692971,0.5392404576658509,0.4915379711924679,0.4402144802803827,0.4212427045324465,0.45786644970433255,0.5130937371391036,0.5699120916241558,0.6094428920667809,0.6286378763633738,0.6084545866564337,0.6325661792536725,0.6603004717224059,0.7300477275380151,0.8099533638491079,0.8699792607796977,0.8614254853477972,0.7955010248967125,0.6881501052315064,0.5885091509951743,0.48897423198015044,0.3871486445129664,0.3036661147709143,0.35774313548531156,0.45931066059617454,0.5634308502328622,0.6543647097516323,0.6769133039608128,0.6473170874688319,0.6423420742253403,0.6388316878779183,0.595880439288154,0.5788959161335105,0.6098851302614179,0.6313319226046286,0.662515451305965,0.6261619547738961,0.5671874402512063,0.5304996766233256,0.5123396415321886,0.5157785646248518,0.5557601409396895,0.5741894335513393,0.5762012141256094,0.5543819818371447,0.460870809884256,0.3541123300214015,0.25157250760281524,0.14746414290849064,0.04619823052587524,0.0,0.06749609479357277,0.1753715870940069,0.27772234913039284,0.39115563846572776,0.4974235566926195,0.5958434650301916,0.6941051416334414,0.7861889126783765,0.7937107850189173,0.7252422717976739,0.6435897707652347,0.5907652168749395,0.5604726841379408,0.53971210037197,0.5315468307682845,0.49856598413222875,0.4424552742596908,0.39146425987639466,0.3535025889777499,0.3626004990462195,0.41710793021955794,0.4673778664017445,0.5144834312698485,0.5469891294625087,0.5560235318414835,0.5684886540046858,0.5734858556996283,0.5713365876659355,0.5695664743399806,0.5420582135212122,0.5399166589751663,0.5490083526671761,0.5430442535435573,0.5234422191982873,0.4969037634884317,0.4955599801560191,0.5374090800981102,0.5696412302608751,0.5767042229424106,0.5107572157307554,0.41331504720746004,0.310388483530164,0.2085707541532793,0.15316653914552925,0.21850997922887494,0.32754518565889557,0.4295737842419971,0.5336696097539129,0.6270603472378937,0.7187564128434696,0.7956595857782935,0.7874651819822627,0.7090920143301225,0.6479108325827054,0.6148315807702027,0.6016326583137701,0.5928994441474278,0.5506109480710615,0.5004880921781596,0.4405576740005208,0.39204784099956,0.3968154294066406,0.4482084963224571,0.4996152563970715,0.5492527686188979,0.5957369562375576,0.6048424402884431,0.6247717546840823,0.6342651648515765,0.6579122720910906,0.6622060559549294,0.6540439414471444,0.6590421405484874,0.666312169263716,0.6677439300422945,0.6639836161209143,0.6598349778053043,0.6372207403568453,0.6108359714173548,0.6444350655474969,0.6716333693226724,0.6976935525562333,0.6637672361330402,0.569416956724444,0.46370003109025015,0.37909861303346704,0.28436186845930145,0.1894960859902186,0.16742057318806047,0.2510936422992298,0.35669841490123133,0.4580739519100234,0.5601472970781831,0.6607980808646396,0.7591131691759374,0.85378434971999,0.9175133025274831,0.8658414306114319,0.7980570852567404,0.7339329808867925,0.6898540797226294,0.6719037796317111,0.6468731085773589,0.6287320257748936,0.5699203302632041,0.5011838640632971,0.4448489892359371,0.3997174944193107,0.40732801641136307,0.4449596478971971,0.49314134604164606,0.5430445359849454,0.5804890060432188,0.5870516077259511,0.581842065816387,0.5709790258225174
0,1,2,3,4,5,6,7,8,9,10,11,12,13,14,15,16,17,18,19,20,21,22,23,24,25,26,27,28,29,30,31,32,33,34,35,36,37,38,39,40,41,42,43,44,45,46,47,48,49,50,51,52,53,54,55,56,57,58,59,60,61,62,63,64,65,66,67,68,69,70,71,72,73,74,75,76,77,78,79,80,81,82,83,84,85,86,87,88,89,90,91,92,93,94,95,96,97,98,99,100,101,102,103,104,105,106,107,108,109,110,111,112,113,114,115,116,117,118,119,120,121,122,123,124,125,126,127,128,129,130,131,132,133,134,135,136,137,138,139,140,141,142,143,144,145,146,147,148,149,150,151,152,153,154,155,156,157,158,159,160,161,162,163,164,165,166,167,168,169,170,171,172,173,174,175,176,177,178,179,180,181,182,183,184,185,186,187,188,189,190,191,192,193,194,195,196,197,198,199,200,201,202,203,204,205,206,207,208,209,210,211,212,213,214,215,216,217,218,219,220,221,222,223,224,225,226,227,228,229,230,231,232,233,234,235,236,237,238,239,240,241,242,243,244,245,246,247,248,249,250,251,252,253,254
0.6339684255825628,0.6436360883262227,0.6651424994987254,0.67552864439131,0.6590953324975808,0.6184391076016387,0.5681132729689886,0.52367253696963,0.4837891893617696,0.4950069679401672,0.5502029675252813,0.6201388233013336,0.694591522387118,0.7263033519050173,0.7364225162547484,0.7583627188766546,0.7878923086378964,0.856626840701086,0.9224691458225971,0.986591724726384,1.0,0.931672594449847,0.8388981107267952,0.7433561321233295,0.644661005238528,0.5449932372871347,0.4926708278562426,0.5798230607188879,0.6785570766039708,0.7674935989522416,0.7803049178202031,0.7603918398873724,0.7346313140951048,0.6987165981317793,0.6988490997809382,0.7248385156867729,0.7215119691742937,0.7286614486301404,0.7324459681342472,0.7239422951149477,0.7195854777015045,0.7236444022962703,0.7321042179302943,0.7335002470423535,0.7063730069964316,0.6877915548211297,0.6672663626881472,0.6631117145587377,0.6343727419184506,0.5780935369244302,0.5257395668534999,0.4771989932422622,0.47192994076024597,0.5207172096007526,0.5843547207330686,0.632171898142837,0.6580230446023325,0.6616559257106975,0.688019123580303,0.7315416691956926,0.8052494697944854,0.8683707906017228,0.8987039154696217,0.8492560793592898,0.770785938853487,0.6779552695231286,0.5732408587107729,0.47468943493238,0.46789802692139437,0.5610876905626996,0.6468005363486466,0.6645365283622615,0.6403959735739013,0.6220341388693886,0.5792285459625712,0.5696433974978241,0.599660288772744,0.6059434229365919,0.6303724030317741,0.6431132074709178,0.6348653808400142,0.6275419583737243,0.6409574177212822,0.6367256859204029,0.6405806496185185,0.6285054102981324,0.6154714553524419,0.6185846651530067,0.585280290692971,0.5392404576658509,0.4915379711924679,0.4402144802803827,0.4212427045324465,0.45786644970433255,0.5130937371391036,0.5699120916241558,0.6094428920667809,0.6286378763633738,0.6084545866564337,0.6325661792536725,0.6603004717224059,0.7300477275380151,0.8099533638491079,0.8699792607796977,0.8614254853477972,0.7955010248967125,0.6881501052315064,0.5885091509951743,0.48897423198015044,0.3871486445129664,0.3036661147709143,0.35774313548531156,0.45931066059617454,0.5634308502328622,0.6543647097516323,0.6769133039608128,0.6473170874688319,0.6423420742253403,0.6388316878779183,0.595880439288154,0.5788959161335105,0.6098851302614179,0.6313319226046286,0.662515451305965,0.6261619547738961,0.5671874402512063,0.5304996766233256,0.5123396415321886,0.5157785646248518,0.5557601409396895,0.5741894335513393,0.5762012141256094,0.5543819818371447,0.460870809884256,0.3541123300214015,0.25157250760281524,0.14746414290849064,0.04619823052587524,0.0,0.06749609479357277,0.1753715870940069,0.27772234913039284,0.39115563846572776,0.4974235566926195,0.5958434650301916,0.6941051416334414,0.7861889126783765,0.7937107850189173,0.7252422717976739,0.6435897707652347,0.5907652168749395,0.5604726841379408,0.53971210037197,0.5315468307682845,0.49856598413222875,0.4424552742596908,0.39146425987639466,0.3535025889777499,0.3626004990462195,0.41710793021955794,0.4673778664017445,0.5144834312698485,0.5469891294625087,0.5560235318414835,0.5684886540046858,0.5734858556996283,0.5713365876659355,0.5695664743399806,0.5420582135212122,0.5399166589751663,0.5490083526671761,0.5430442535435573,0.5234422191982873,0.4969037634884317,0.4955599801560191,0.5374090800981102,0.5696412302608751,0.5767042229424106,0.5107572157307554,0.41331504720746004,0.310388483530164,0.2085707541532793,0.15316653914552925,0.21850997922887494,0.32754518565889557,0.4295737842419971,0.5336696097539129,0.6270603472378937,0.7187564128434696,0.7956595857782935,0.7874651819822627,0.7090920143301225,0.6479108325827054,0.6148315807702027,0.6016326583137701,0.5928994441474278,0.5506109480710615,0.5004880921781596,0.4405576740005208,0.39204784099956,0.3968154294066406,0.4482084963224571,0.4996152563970715,0.5492527686188979,0.5957369562375576,0.6048424402884431,0.6247717546840823,0.6342651648515765,0.6579122720910906,0.6622060559549294,0.6540439414471444,0.6590421405484874,0.666312169263716,0.6677439300422945,0.6639836161209143,0.6598349778053043,0.6372207403568453,0.6108359714173548,0.6444350655474969,0.6716333693226724,0.6976935525562333,0.6637672361330402,0.569416956724444,0.46370003109025015,0.37909861303346704,0.28436186845930145,0.1894960859902186,0.16742057318806047,0.2510936422992298,0.35669841490123133,0.4580739519100234,0.5601472970781831,0.6607980808646396,0.7591131691759374,0.85378434971999,0.9175133025274831,0.8658414306114319,0.7980570852567404,0.7339329808867925,0.6898540797226294,0.6719037796317111,0.6468731085773589,0.6287320257748936,0.5699203302632041,0.5011838640632971,0.4448489892359371,0.3997174944193107,0.40732801641136307,0.4449596478971971,0.49314134604164606,0.5430445359849454,0.5804890060432188,0.5870516077259511,0.581842065816387,0.5709790258225174
0,1,2,3,4,5,6,7,8,9,10,11,12,13,14,15,16,17,18,19,20,21,22,23,24,25,26,27,28,29,30,31,32,33,34,35,36,37,38,39,40,41,42,43,44,45,46,47,48,49,50,51,52,53,54,55,56,57,58,59,60,61,62,63,64,65,66,67,68,69,70,71,72,73,74,75,76,77,78,79,80,81,82,83,84,85,86,87,88,89,90,91,92,93,94,95,96,97,98,99,100,101,102,103,104,105,106,107,108,109,110,111,112,113,114,115,116,117,118,119,120,121,122,123,124,125,126,127,128,129,130,131,132,133,134,135,136,137,138,139,140,141,142,143,144,145,146,147,148,149,150,151,152,153,154,155,156,157,158,159,160,161,162,163,164,165,166,167,168,169,170,171,172,173,174,175,176,177,178,179,180,181,182,183,184,185,186,187,188,189,190,191,192,193,194,195,196,197,198,199,200,201,202,203,204,205,206,207,208,209,210,211,212,213,214,215,216,217,218,219,220,221,222,223,224,225,226,227,228,229,230,231,232,233,234,235,236,237,238,239,240,241,242,243,244,245,246,247,248,249,250,251,252,253,254
0.6339684255825628,0.6436360883262227,0.6651424994987254,0.67552864439131,0.6590953324975808,0.6184391076016387,0.5681132729689886,0.52367253696963,0.4837891893617696,0.4950069679401672,0.5502029675252813,0.6201388233013336,0.694591522387118,0.7263033519050173,0.7364225162547484,0.7583627188766546,0.7878923086378964,0.856626840701086,0.9224691458225971,0.986591724726384,1.0,0.931672594449847,0.8388981107267952,0.7433561321233295,0.644661005238528,0.5449932372871347,0.4926708278562426,0.5798230607188879,0.6785570766039708,0.7674935989522416,0.7803049178202031,0.7603918398873724,0.7346313140951048,0.6987165981317793,0.6988490997809382,0.7248385156867729,0.7215119691742937,0.7286614486301404,0.7324459681342472,0.7239422951149477,0.7195854777015045,0.7236444022962703,0.7321042179302943,0.7335002470423535,0.7063730069964316,0.6877915548211297,0.6672663626881472,0.6631117145587377,0.6343727419184506,0.5780935369244302,0.5257395668534999,0.4771989932422622,0.47192994076024597,0.5207172096007526,0.5843547207330686,0.632171898142837,0.6580230446023325,0.6616559257106975,0.688019123580303,0.7315416691956926,0.8052494697944854,0.8683707906017228,0.8987039154696217,0.8492560793592898,0.770785938853487,0.6779552695231286,0.5732408587107729,0.47468943493238,0.46789802692139437,0.5610876905626996,0.6468005363486466,0.6645365283622615,0.6403959735739013,0.6220341388693886,0.5792285459625712,0.5696433974978241,0.599660288772744,0.6059434229365919,0.6303724030317741,0.6431132074709178,0.6348653808400142,0.6275419583737243,0.6409574177212822,0.6367256859204029,0.6405806496185185,0.6285054102981324,0.6154714553524419,0.6185846651530067,0.585280290692971,0.5392404576658509,0.4915379711924679,0.4402144802803827,0.4212427045324465,0.45786644970433255,0.5130937371391036,0.5699120916241558,0.6094428920667809,0.6286378763633738,0.6084545866564337,0.6325661792536725,0.6603004717224059,0.7300477275380151,0.8099533638491079,0.8699792607796977,0.8614254853477972,0.7955010248967125,0.6881501052315064,0.5885091509951743,0.48897423198015044,0.3871486445129664,0.3036661147709143,0.35774313548531156,0.45931066059617454,0.5634308502328622,0.6543647097516323,0.6769133039608128,0.6473170874688319,0.6423420742253403,0.6388316878779183,0.595880439288154,0.5788959161335105,0.6098851302614179,0.6313319226046286,0.662515451305965,0.6261619547738961,0.5671874402512063,0.5304996766233256,0.5123396415321886,0.5157785646248518,0.5557601409396895,0.5741894335513393,0.5762012141256094,0.5543819818371447,0.460870809884256,0.3541123300214015,0.25157250760281524,0.14746414290849064,0.04619823052587524,0.0,0.06749609479357277,0.1753715870940069,0.27772234913039284,0.39115563846572776,0.4974235566926195,0.5958434650301916,0.6941051416334414,0.7861889126783765,0.7937107850189173,0.7252422717976739,0.6435897707652347,0.5907652168749395,0.5604726841379408,0.53971210037197,0.5315468307682845,0.49856598413222875,0.4424552742596908,0.39146425987639466,0.3535025889777499,0.3626004990462195,0.41710793021955794,0.4673778664017445,0.5144834312698485,0.5469891294625087,0.5560235318414835,0.5684886540046858,0.5734858556996283,0.5713365876659355,0.5695664743399806,0.5420582135212122,0.5399166589751663,0.5490083526671761,0.5430442535435573,0.5234422191982873,0.4969037634884317,0.4955599801560191,0.5374090800981102,0.5696412302608751,0.5767042229424106,0.5107572157307554,0.41331504720746004,0.310388483530164,0.2085707541532793,0.15316653914552925,0.21850997922887494,0.32754518565889557,0.4295737842419971,0.5336696097539129,0.6270603472378937,0.7187564128434696,0.7956595857782935,0.7874651819822627,0.7090920143301225,0.6479108325827054,0.6148315807702027,0.6016326583137701,0.5928994441474278,0.5506109480710615,0.5004880921781596,0.4405576740005208,0.39204784099956,0.3968154294066406,0.4482084963224571,0.4996152563970715,0.5492527686188979,0.5957369562375576,0.6048424402884431,0.6247717546840823,0.6342651648515765,0.6579122720910906,0.6622060559549294,0.6540439414471444,0.6590421405484874,0.666312169263716,0.6677439300422945,0.6639836161209143,0.6598349778053043,0.6372207403568453,0.6108359714173548,0.6444350655474969,0.6716333693226724,0.6976935525562333,0.6637672361330402,0.569416956724444,0.46370003109025015,0.37909861303346704,0.28436186845930145,0.1894960859902186,0.16742057318806047,0.2510936422992298,0.35669841490123133,0.4580739519100234,0.5601472970781831,0.6607980808646396,0.7591131691759374,0.85378434971999,0.9175133025274831,0.8658414306114319,0.7980570852567404,0.7339329808867925,0.6898540797226294,0.6719037796317111,0.6468731085773589,0.6287320257748936,0.5699203302632041,0.5011838640632971,0.4448489892359371,0.3997174944193107,0.40732801641136307,0.4449596478971971,0.49314134604164606,0.5430445359849454,0.5804890060432188,0.5870516077259511,0.581842065816387,0.5709790258225174
0,1,2,3,4,5,6,7,8,9,10,11,12,13,14,15,16,17,18,19,20,21,22,23,24,25,26,27,28,29,30,31,32,33,34,35,36,37,38,39,40,41,42,43,44,45,46,47,48,49,50,51,52,53,54,55,56,57,58,59,60,61,62,63,64,65,66,67,68,69,70,71,72,73,74,75,76,77,78,79,80,81,82,83,84,85,86,87,88,89,90,91,92,93,94,95,96,97,98,99,100,101,102,103,104,105,106,107,108,109,110,111,112,113,114,115,116,117,118,119,120,121,122,123,124,125,126,127,128,129,130,131,132,133,134,135,136,137,138,139,140,141,142,143,144,145,146,147,148,149,150,151,152,153,154,155,156,157,158,159,160,161,162,163,164,165,166,167,168,169,170,171,172,173,174,175,176,177,178,179,180,181,182,183,184,185,186,187,188,189,190,191,192,193,194,195,196,197,198,199,200,201,202,203,204,205,206,207,208,209,210,211,212,213,214,215,216,217,218,219,220,221,222,223,224,225,226,227,228,229,230,231,232,233,234,235,236,237,238,239,240,241,242,243,244,245,246,247,248,249,250,251,252,253,254
0.7284494518199551,0.6807547132753786,0.6190097909203347,0.6453670620299858,0.6815700168647565,0.7324875770999775,0.7584476286316457,0.7506595774636518,0.7282815009346848,0.7079279882107947,0.7101365291201214,0.7222353094913103,0.7069986433407855,0.7062155880561942,0.7061711425209021,0.698113491643249,0.6592544749177636,0.5931517600357905,0.5195433440253252,0.4228480605820426,0.3436445517712974,0.32396283616805555,0.3905363073988344,0.45919058392488843,0.5198377207809033,0.5828172959416316,0.6310904484315811,0.6688588705966767,0.6961491869067125,0.7390276923576069,0.863386148237387,0.9486939793107414,0.8941163445964717,0.7520513623963945,0.613567733715219,0.46668736281519596,0.4492884147715257,0.5800198788527036,0.7116605080530771,0.802473129628269,0.7946992977797196,0.7917123116442308,0.7605701275745878,0.7144015000263089,0.6504970645577925,0.6748462505976027,0.7060580857560721,0.7312225006571635,0.7325550744523337,0.7238090213225332,0.73261376724109,0.7530787295389363,0.762165911126508,0.7820683505543631,0.7726038517357372,0.7595052010951644,0.7447454111689389,0.706110192061705,0.6502791595774209,0.5541790590987388,0.46867383987451294,0.3930990437942139,0.34630867652482245,0.3951415260456095,0.46697452104098947,0.5382251932417574,0.6000468846104852,0.6448862354022156,0.6895999457125308,0.7290738957099014,0.7823238831022152,0.8935971542557244,1.0,0.9826971994303006,0.8490044410034674,0.7104924194825788,0.5613773319241817,0.4876082407599709,0.5926413831690374,0.7078553129681557,0.8186177154397516,0.8555668978510989,0.837073120236604,0.8158906097524063,0.7909595057841106,0.7112656751036583,0.7174779863252931,0.7515527987706419,0.7903113792485605,0.8116898188247097,0.8128416328513302,0.8127991863503619,0.8068977857367141,0.8006271942866476,0.7720222868772462,0.769055639563252,0.7616497051093143,0.7530982220331763,0.6935746347598659,0.6135798820280316,0.5289149580610504,0.43333640475459934,0.32874173430087517,0.28611693268479055,0.3296762318064763,0.399427479921445,0.47160123769835405,0.5358516343012578,0.5906717661807726,0.6261688651759298,0.6561935145389448,0.7074090015144572,0.8159227359140502,0.9203640974604612,0.8807388824221176,0.7444555521459026,0.5961278828321195,0.4491203894898108,0.3541522605066101,0.4503985889812796,0.5836418454334575,0.7067595080960958,0.7485249450200726,0.7120425600500919,0.6984969531163463,0.6523183596134485,0.6212062375729772,0.6312888320417205,0.6320693876973591,0.5903980179846942,0.4585267101473356,0.32616533443712914,0.2190698853081674,0.08612333198011601,0.0,0.0507998116143229,0.17348732652706644,0.2900615600726555,0.41142978040223,0.5653468727574449,0.6223018147614034,0.5867140060399558,0.5631196265393772,0.5288967202228161,0.47057964691931886,0.41053092614251874,0.3378301386472131,0.27077248575622637,0.21750464391942037,0.198037285439141,0.24575431271892656,0.3436098214166954,0.4399385994489604,0.5251997416322336,0.6132290269801706,0.6713227781189639,0.6940911899611848,0.6958048547316658,0.7086484673840987,0.7135753368816502,0.7192680450361877,0.7222693066913868,0.7298117590158322,0.7251880522993144,0.6911063229507901,0.6550428911776578,0.6013747121343709,0.6280011634749778,0.7118809128018526,0.7374206443035298,0.7558646985672173,0.7462008912252687,0.6699790539520469,0.5356600988594167,0.3955136645577282,0.25657414342049556,0.13364450141689854,0.16685981771133518,0.29283632708880436,0.43674340113121435,0.5792750742352135,0.7086217800042887,0.690833390375853,0.6459763772594656,0.6088909127235231,0.5615244144978417,0.5121159877351529,0.45067201963595416,0.3812794197495011,0.30928075090871143,0.26162485308138095,0.2651030257182114,0.33128406384459463,0.4120959270358986,0.5040932953280954,0.5882457012577254,0.644777087651744,0.6750595534649699,0.6944645991472225,0.6953225710883713,0.6824693500612762,0.6689578401358292,0.6561437654981646,0.6425388105219207,0.6422362813381985,0.6390577630245673,0.603015755156858,0.5746307521031051,0.5465815851801272,0.5946858713561491,0.6739702125776379,0.7081853546279833,0.7186549515189613,0.6553605980613275,0.5187322811756268,0.3785953066773162,0.22110946265838383,0.08130427660307804,0.021134512482356538,0.10641031395871448,0.23335233947972478,0.33779843332439974,0.4816164482698726,0.6178683527577826,0.6266700498491762,0.6125225186673404,0.5803105180009256,0.5337600410065466,0.4837260967964454,0.42038555308323744,0.35343165800752896,0.2849697098923132,0.22514478270635996,0.23702282241322115,0.31120966353910884,0.4016358506544906,0.4848831605662349,0.5586427611369711,0.6087888773220449,0.6280563708702855,0.6418506316869097,0.6328964539625721,0.6342686587077555,0.6265829492091148,0.6239362797513159,0.6184999098439965,0.6372600864444031,0.6645386233709347,0.6672259736461799,0.6370635322602478,0.5932868350026235,0.5455025854844298,0.5150489003911893,0.5632565393554838,0.6335812760928139
0,1,2,3,4,5,6,7,8,9,10,11,12,13,14,15,16,17,18,19,20,21,22,23,24,25,26,27,28,29,30,31,32,33,34,35,36,37,38,39,40,41,42,43,44,45,46,47,48,49,50,51,52,53,54,55,56,57,58,59,60,61,62,63,64,65,66,67,68,69,70,71,72,73,74,75,76,77,78,79,80,81,82,83,84,85,86,87,88,89,90,91,92,93,94,95,96,97,98,99,100,101,102,103,104,105,106,107,108,109,110,111,112,113,114,115,116,117,118,119,120,121,122,123,124,125,126,127,128,129,130,131,132,133,134,135,136,137,138,139,140,141,142,143,144,145,146,147,148,149,150,151,152,153,154,155,156,157,158,159,160,161,162,163,164,165,166,167,168,169,170,171,172,173,174,175,176,177,178,179,180,181,182,183,184,185,186,187,188,189,190,191,192,193,194,195,196,197,198,199,200,201,202,203,204,205,206,207,208,209,210,211,212,213,214,215,216,217,218,219,220,221,222,223,224,225,226,227,228,229,230,231,232,233,234,235,236,237,238,239,240,241,242,243,244,245,246,247,248,249,250,251,252,253,254
0.7284494518199551,0.6807547132753786,0.6190097909203347,0.6453670620299858,0.6815700168647565,0.7324875770999775,0.7584476286316457,0.7506595774636518,0.7282815009346848,0.7079279882107947,0.7101365291201214,0.7222353094913103,0.7069986433407855,0.7062155880561942,0.7061711425209021,0.698113491643249,0.6592544749177636,0.5931517600357905,0.5195433440253252,0.4228480605820426,0.3436445517712974,0.32396283616805555,0.3905363073988344,0.45919058392488843,0.5198377207809033,0.5828172959416316,0.6310904484315811,0.6688588705966767,0.6961491869067125,0.7390276923576069,0.863386148237387,0.9486939793107414,0.8941163445964717,0.7520513623963945,0.613567733715219,0.46668736281519596,0.4492884147715257,0.5800198788527036,0.7116605080530771,0.802473129628269,0.7946992977797196,0.7917123116442308,0.7605701275745878,0.7144015000263089,0.6504970645577925,0.6748462505976027,0.7060580857560721,0.7312225006571635,0.7325550744523337,0.7238090213225332,0.73261376724109,0.7530787295389363,0.762165911126508,0.7820683505543631,0.7726038517357372,0.7595052010951644,0.7447454111689389,0.706110192061705,0.6502791595774209,0.5541790590987388,0.46867383987451294,0.3930990437942139,0.34630867652482245,0.3951415260456095,0.46697452104098947,0.5382251932417574,0.6000468846104852,0.6448862354022156,0.6895999457125308,0.7290738957099014,0.7823238831022152,0.8935971542557244,1.0,0.9826971994303006,0.8490044410034674,0.7104924194825788,0.5613773319241817,0.4876082407599709,0.5926413831690374,0.7078553129681557,0.8186177154397516,0.8555668978510989,0.837073120236604,0.8158906097524063,0.7909595057841106,0.7112656751036583,0.7174779863252931,0.7515527987706419,0.7903113792485605,0.8116898188247097,0.8128416328513302,0.8127991863503619,0.8068977857367141,0.8006271942866476,0.7720222868772462,0.769055639563252,0.7616497051093143,0.7530982220331763,0.6935746347598659,0.6135798820280316,0.5289149580610504,0.43333640475459934,0.32874173430087517,0.28611693268479055,0.3296762318064763,0.399427479921445,0.47160123769835405,0.5358516343012578,0.5906717661807726,0.6261688651759298,0.6561935145389448,0.7074090015144572,0.8159227359140502,0.9203640974604612,0.8807388824221176,0.7444555521459026,0.5961278828321195,0.4491203894898108,0.3541522605066101,0.4503985889812796,0.5836418454334575,0.7067595080960958,0.7485249450200726,0.7120425600500919,0.6984969531163463,0.6523183596134485,0.6212062375729772,0.6312888320417205,0.6320693876973591,0.5903980179846942,0.4585267101473356,0.32616533443712914,0.2190698853081674,0.08612333198011601,0.0,0.0507998116143229,0.17348732652706644,0.2900615600726555,0.41142978040223,0.5653468727574449,0.6223018147614034,0.5867140060399558,0.5631196265393772,0.5288967202228161,0.47057964691931886,0.41053092614251874,0.3378301386472131,0.27077248575622637,0.21750464391942037,0.198037285439141,0.24575431271892656,0.3436098214166954,0.4399385994489604,0.5251997416322336,0.6132290269801706,0.6713227781189639,0.6940911899611848,0.6958048547316658,0.7086484673840987,0.7135753368816502,0.7192680450361877,0.7222693066913868,0.7298117590158322,0.7251880522993144,0.6911063229507901,0.6550428911776578,0.6013747121343709,0.6280011634749778,0.7118809128018526,0.7374206443035298,0.7558646985672173,0.7462008912252687,0.6699790539520469,0.5356600988594167,0.3955136645577282,0.25657414342049556,0.13364450141689854,0.16685981771133518,0.29283632708880436,0.43674340113121435,0.5792750742352135,0.7086217800042887,0.690833390375853,0.6459763772594656,0.6088909127235231,0.5615244144978417,0.5121159877351529,0.45067201963595416,0.3812794197495011,0.30928075090871143,0.26162485308138095,0.2651030257182114,0.33128406384459463,0.4120959270358986,0.5040932953280954,0.5882457012577254,0.644777087651744,0.6750595534649699,0.6944645991472225,0.6953225710883713,0.6824693500612762,0.6689578401358292,0.6561437654981646,0.6425388105219207,0.6422362813381985,0.6390577630245673,0.603015755156858,0.5746307521031051,0.5465815851801272,0.5946858713561491,0.6739702125776379,0.7081853546279833,0.7186549515189613,0.6553605980613275,0.5187322811756268,0.3785953066773162,0.22110946265838383,0.08130427660307804,0.021134512482356538,0.10641031395871448,0.23335233947972478,0.33779843332439974,0.4816164482698726,0.6178683527577826,0.6266700498491762,0.6125225186673404,0.5803105180009256,0.5337600410065466,0.4837260967964454,0.42038555308323744,0.35343165800752896,0.2849697098923132,0.22514478270635996,0.23702282241322115,0.31120966353910884,0.4016358506544906,0.4848831605662349,0.5586427611369711,0.6087888773220449,0.6280563708702855,0.6418506316869097,0.6328964539625721,0.6342686587077555,0.6265829492091148,0.6239362797513159,0.6184999098439965,0.6372600864444031,0.6645386233709347,0.6672259736461799,0.6370635322602478,0.5932868350026235,0.5455025854844298,0.5150489003911893,0.5632565393554838,0.6335812760928139
0,1,2,3,4,5,6,7,8,9,10,11,12,13,14,15,16,17,18,19,20,21,22,23,24,25,26,27,28,29,30,31,32,33,34,35,36,37,38,39,40,41,42,43,44,45,46,47,48,49,50,51,52,53,54,55,56,57,58,59,60,61,62,63,64,65,66,67,68,69,70,71,72,73,74,75,76,77,78,79,80,81,82,83,84,85,86,87,88,89,90,91,92,93,94,95,96,97,98,99,100,101,102,103,104,105,106,107,108,109,110,111,112,113,114,115,116,117,118,119,120,121,122,123,124,125,126,127,128,129,130,131,132,133,134,135,136,137,138,139,140,141,142,143,144,145,146,147,148,149,150,151,152,153,154,155,156,157,158,159,160,161,162,163,164,165,166,167,168,169,170,171,172,173,174,175,176,177,178,179,180,181,182,183,184,185,186,187,188,189,190,191,192,193,194,195,196,197,198,199,200,201,202,203,204,205,206,207,208,209,210,211,212,213,214,215,216,217,218,219,220,221,222,223,224,225,226,227,228,229,230,231,232,233,234,235,236,237,238,239,240,241,242,243,244,245,246,247,248,249,250,251,252,253,254
0.8791847148750183,0.8892268874490039,0.909525605855777,0.9269334594569156,0.9303729473856124,0.9374593096483794,0.9413230458107917,0.9450742552320537,0.948722063607383,0.9574218288790748,0.9634030099571467,0.9749988700932359,0.9650281585677716,0.9744457271257883,1.0,0.9468485713565302,0.8633190463106155,0.7762067983636038,0.6872575144317654,0.5926603424970263,0.5088488916358846,0.4147049165438905,0.3459815650616527,0.4020059082314962,0.48588463427572126,0.5811688477497565,0.6735278089254364,0.7516380866838634,0.8234162273926984,0.9137747214260497,0.9685422372142201,0.9529899168971547,0.945098116259552,0.9402590215094824,0.9184366349125432,0.8836971012005996,0.8701941032564884,0.8843865392475858,0.9085149478864607,0.9093627670732554,0.8970057685404877,0.9021612906533196,0.8999738972938065,0.9014942112338251,0.8955350024527733,0.8921199602330563,0.8907085087970215,0.8869452529191606,0.8843131081336386,0.8748964478033492,0.8758457206508066,0.8659022117340318,0.8612220193840239,0.8728903039312916,0.8671728454676941,0.8715712533329962,0.8672430344052198,0.8754703681156859,0.8706906709081785,0.884612168650738,0.9192000893496912,0.9282200899878323,0.9250065915604697,0.9421542587018514,0.9494831929329965,0.9517319586147623,0.9692159385747261,0.9551495366517084,0.949644782405437,0.9629389852070176,0.9626549526131991,0.9643365983984893,0.9689083231261653,0.963566840669646,0.9769479224218616,0.9111482781328024,0.8224872677803545,0.7358310530776873,0.6397043003107137,0.5462810096817781,0.4621881968340511,0.36735188710872224,0.31369897862657936,0.38491712066892836,0.4687435957729802,0.5627061249945466,0.658740642404334,0.7446047950361572,0.8322099188286844,0.9079510445407162,0.9538754053041907,0.9458096247659213,0.9374319080676536,0.9486934126313291,0.9333507154046679,0.8949368835115248,0.8747015596891816,0.8949231542457441,0.9103830110836735,0.9111260878315557,0.9089645953704486,0.9118976942140122,0.9071138473244384,0.9073509253182781,0.9021628532588943,0.8989987766123821,0.9070251285282485,0.8962740519558805,0.8937197479814749,0.881070530505117,0.8766558124075225,0.8745826117789512,0.872613860754285,0.8633557181578877,0.8711674771126563,0.8638364590974406,0.8710007352197615,0.8642178605149118,0.8813348242291674,0.9075255214424645,0.90914462128208,0.9115913266528102,0.9319000532723773,0.9443114609704941,0.9232242667788615,0.8719761466679223,0.8491274991293887,0.8431381297381191,0.8388572016323415,0.8283147979354499,0.8142535013368541,0.7940159998137677,0.7894149614725583,0.7811766511997469,0.7869127028416387,0.791675701771148,0.7906293514151508,0.7999608700956711,0.7962868613043836,0.8126443607858773,0.8118778195445362,0.8179964150184769,0.8263524240289182,0.8263643643625156,0.8153250939160692,0.8207311599724578,0.8321271937615866,0.832176751070612,0.8331699140071929,0.8242378709468845,0.8330876871883315,0.8352358358596268,0.8211548069538326,0.7966606703378019,0.782981318936784,0.8116940869887634,0.8494576303382946,0.8571352470417395,0.8676941928242279,0.8492522928154007,0.784369002670565,0.6919358285119444,0.6079698744544499,0.5128959541212983,0.42001111892524046,0.33555203456794347,0.24009538607042868,0.14825822401091493,0.06925197354638257,0.0398878578942683,0.09899988555810979,0.18943143517290384,0.27369162732881547,0.366887414184375,0.46332986413781496,0.5597821257496425,0.6556984967973447,0.7411877636375195,0.8309683856803645,0.8787210715140792,0.8791726748620663,0.8764347368512491,0.8723997106360954,0.8723488967424387,0.8766568456908632,0.8700407056258026,0.8634993501076029,0.8607545896229749,0.8524899954002225,0.8459486795031324,0.83956809449101,0.8243532770981594,0.7986428568046802,0.7990868103192699,0.7952372462784192,0.7955980347119089,0.7957548458758512,0.7855071737082566,0.7839101436551843,0.7931900307058868,0.7949212467244124,0.7956181249241245,0.797411818729207,0.8057866168308072,0.8100822102953074,0.8157819203257706,0.8180559316374967,0.8254706411803912,0.8265231430335218,0.8226946221414648,0.8226759515451172,0.8236032817776513,0.827651992410678,0.825528690946713,0.7984919314663674,0.7750198155022674,0.7951214713373944,0.8448241883096004,0.8558516064376653,0.8642183872996556,0.8599440937897427,0.8116268979826664,0.7268587398902797,0.6365656858085615,0.5503158485655462,0.4549796727420725,0.3700662139993658,0.27786413671837407,0.18143212523588392,0.0853733907794616,0.005936838123360211,0.0,0.0719123674378348,0.1663498329143458,0.25556040877925446,0.3430237072308797,0.43695153579502577,0.5208645793992033,0.6155050196513039,0.7043260331500565,0.7918242643178379,0.8629393580015106,0.8733840511643849,0.8826212617328966,0.8735148977440912,0.8722807787361853,0.8686399849034152,0.8651798074726513,0.8585909481851406,0.8491473866107313,0.8483111576219997,0.8392640395318796,0.8299212567904894,0.8117847408940468,0.8061813884623601
0,1,2,3,4,5,6,7,8,9,10,11,12,13,14,15,16,17,18,19,20,21,22,23,24,25,26,27,28,29,30,31,32,33,34,35,36,37,38,39,40,41,42,43,44,45,46,47,48,49,50,51,52,53,54,55,56,57,58,59,60,61,62,63,64,65,66,67,68,69,70,71,72,73,74,75,76,77,78,79,80,81,82,83,84,85,86,87,88,89,90,91,92,93,94,95,96,97,98,99,100,101,102,103,104,105,106,107,108,109,110,111,112,113,114,115,116,117,118,119,120,121,122,123,124,125,126,127,128,129,130,131,132,133,134,135,136,137,138,139,140,141,142,143,144,145,146,147,148,149,150,151,152,153,154,155,156,157,158,159,160,161,162,163,164,165,166,167,168,169,170,171,172,173,174,175,176,177,178,179,180,181,182,183,184,185,186,187,188,189,190,191,192,193,194,195,196,197,198,199,200,201,202,203,204,205,206,207,208,209,210,211,212,213,214,215,216,217,218,219,220,221,222,223,224,225,226,227,228,229,230,231,232,233,234,235,236,237,238,239,240,241,242,243,244,245,246,247,248,249,250,251,252,253,254
