0,1,2,3,4,5,6,7,8,9,10,11,12,13,14,15,16,17,18,19,20,21,22,23,24,25,26,27,28,29,30,31,32,33,34,35,36,37,38,39,40,41,42,43,44,45,46,47,48,49,50,51,52,53,54,55,56,57,58,59,60,61,62,63,64,65,66,67,68,69,70,71,72,73,74,75,76,77,78,79,80,81,82,83,84,85,86,87,88,89,90,91,92,93,94,95,96,97,98,99,100,101,102,103,104,105,106,107,108,109,110,111,112,113,114,115,116,117,118,119,120,121,122,123,124,125,126,127,128,129,130,131,132,133,134,135,136,137,138,139,140,141,142,143,144,145,146,147,148,149,150,151,152,153,154,155,156,157,158,159,160,161,162,163,164,165,166,167,168,169,170,171,172,173,174,175,176,177,178,179,180,181,182,183,184,185,186,187,188,189,190,191,192,193,194,195,196,197,198,199,200,201,202,203,204,205,206,207,208,209,210,211,212,213,214,215,216,217,218,219,220,221,222,223,224,225,226,227,228,229,230,231,232,233,234,235,236,237,238,239,240,241,242,243,244,245,246,247,248,249,250,251,252,253,254
0.5600797473252404,0.5662932258505915,0.6145473736153737,0.6812901933824551,0.7194830614646337,0.7012384373967397,0.6527168578729827,0.6074592161860473,0.550736585184779,0.49390928134965817,0.46584048618995855,0.4655966129712712,0.503996007946923,0.5450204953646547,0.5787573556451302,0.597407026945747,0.6332070477993583,0.685171476380785,0.7346288959923108,0.781097686690075,0.8305027867285917,0.8682723930874419,0.8960845149557986,0.9114901989005562,0.9194611226336371,0.9195582377111777,0.919549730767343,0.9163290654177212,0.9008652933462673,0.8664841516848809,0.8368287837975066,0.8436072850959175,0.8760501203208904,0.8960932631301857,0.9108327075247122,0.9044304128101297,0.8519806138514561,0.7946482381400899,0.7333505171666883,0.6644808436308081,0.6007636253490047,0.5269423854841091,0.4526762348228557,0.3784100841616018,0.30473023810922584,0.24242080415105316,0.19139278387741787,0.14065639474276437,0.09088868132368866,0.04891523284475663,0.0,0.012173789718188388,0.0718634172160546,0.14569716075706673,0.2149476573648128,0.2788485308657689,0.35276910868371436,0.42703525934496867,0.5012272285032382,0.5688061039791164,0.6342624327310613,0.7083445638047752,0.7825566525267349,0.850553541644095,0.9154613481557088,0.9702726094123166,0.9674699136830776,0.966824311970115,0.9666119082982139,0.9543334793615155,0.9268024940036597,0.8963311881693543,0.8509133379033824,0.8046568317196825,0.7577422470183364,0.7078395057202607,0.6580184282500161,0.6087701860467867,0.5667630034134423,0.544023226439108,0.5632539925235975,0.6083592298693712,0.6580960837807126,0.7118421376450197,0.7641401450679415,0.8159190509070169,0.8559585945745378,0.8864556758699851,0.9115757220858933,0.9310260401563424,0.9457005644474914,0.9486378572961423,0.9429880223524263,0.9366837691356378,0.9286320116124873,0.8965101170025309,0.8751556040219008,0.9005508749274935,0.9313283948749875,0.9381185056217722,0.945817458788413,0.9085111829367838,0.8492303651356781,0.7878097041568441,0.722433247432984,0.6577843733687865,0.585833016159766,0.5237844908260332,0.4510071138710181,0.3767418761184631,0.30247572545720836,0.22821301786889325,0.15647310318874785,0.09662605533155233,0.061979987702807326,0.09114694986927363,0.16046392020239164,0.22404824186612338,0.2937184385475149,0.36796833752120905,0.442230969259811,0.5143024568964392,0.5763062565205996,0.6492784304973758,0.7235437926422703,0.7978089612086152,0.8705733095209331,0.9325872789456207,0.995412287906642,1.0,0.9906260771633684,0.9820464609725486,0.970406454692875,0.9561393388391073,0.9323170960087732,0.9086589761525428,0.8622385644788255,0.8106089393187563,0.7570517331573754,0.6987134817994942,0.6456972453435355,0.596134058281431,0.548334635958609,0.5283069025027745,0.5558238571614855,0.6017822529152848,0.6513420974891129,0.7015720010924857,0.7482727965246672,0.7970878602390004,0.8376973431245154,0.8690406227627525,0.8909515519256912,0.9137502807964015,0.9195550472978824,0.9248631975282877,0.9349596093897672,0.9287602434463658,0.8981394679459718,0.8766483037686346,0.89231053979805,0.9069897839564258,0.9185245275766278,0.904594156643125,0.8540957537036395,0.797553768778017,0.7300829377811038,0.6681661627089563,0.596572231170994,0.5342341149833398,0.46295098857855654,0.3971196350839534,0.3299399249318462,0.2564085863247785,0.19351030032825456,0.12697643150620253,0.1136636334379808,0.16889579504410834,0.2310506683665945,0.30217488796098513,0.3764329487030671,0.45050281459295194,0.5156166887261797,0.5835337950649087,0.6577422531628736,0.7319726909333322,0.800590668652986,0.8650681773732374,0.9358054330876655,0.9469500141826352,0.9438435246033738,0.9509887476047894,0.9499750956282069,0.9354079643473558,0.9091769669401017,0.8774007040222997,0.838633164549385,0.7905997227628228,0.737038091664723,0.6865072091141062,0.6383346752898804,0.5897668737732831,0.5501378790631413,0.5453580952017894,0.5761855433344407,0.6241026561698888,0.6736090270227435,0.723100926395277,0.7699909826924132,0.8146242820859211,0.8577693768373305,0.8886339705328359,0.9055491141152414,0.9181768187621566,0.9195573359272746,0.9195582377111777,0.919144591019557,0.9032502384485768,0.873433111757604,0.8500760045160418,0.8768655242429055,0.9105165585532378,0.920445448169152,0.9290475621002385,0.8976681681294667,0.8435635264723724,0.7815636685142451,0.7192126975776203,0.6531625528758553,0.586985274493272,0.5129524104195817,0.44658462776790797,0.37996169648641365,0.30581248570256037,0.2326189050474874,0.1704165936806692,0.09894900480024948,0.03825609006016717,0.041037918144959384,0.0967142359779034,0.16883552803549695,0.24253329736691387,0.3056359259127879,0.3758898544205662,0.4501430300166067,0.5244091806778606,0.5986722275337297,0.670891663386588,0.7328670817901224,0.8057194304860094,0.8796771027043033,0.9432173408837654,0.975306223292359,0.9672074703024398,0.9615399977082499
0,1,2,3,4,5,6,7,8,9,10,11,12,13,14,15,16,17,18,19,20,21,22,23,24,25,26,27,28,29,30,31,32,33,34,35,36,37,38,39,40,41,42,43,44,45,46,47,48,49,50,51,52,53,54,55,56,57,58,59,60,61,62,63,64,65,66,67,68,69,70,71,72,73,74,75,76,77,78,79,80,81,82,83,84,85,86,87,88,89,90,91,92,93,94,95,96,97,98,99,100,101,102,103,104,105,106,107,108,109,110,111,112,113,114,115,116,117,118,119,120,121,122,123,124,125,126,127,128,129,130,131,132,133,134,135,136,137,138,139,140,141,142,143,144,145,146,147,148,149,150,151,152,153,154,155,156,157,158,159,160,161,162,163,164,165,166,167,168,169,170,171,172,173,174,175,176,177,178,179,180,181,182,183,184,185,186,187,188,189,190,191,192,193,194,195,196,197,198,199,200,201,202,203,204,205,206,207,208,209,210,211,212,213,214,215,216,217,218,219,220,221,222,223,224,225,226,227,228,229,230,231,232,233,234,235,236,237,238,239,240,241,242,243,244,245,246,247,248,249,250,251,252,253,254
0.21121207259708008,0.20076893834203435,0.22341888532548015,0.2934101028185383,0.3915612050546846,0.4954143896415699,0.5579231811677552,0.5111227833043701,0.4597135012669069,0.3947261450517061,0.33888738724278067,0.34636725899092813,0.29669824719668725,0.22139330201551832,0.14954334804974945,0.0737834604911436,0.022090397661537864,0.0,0.0043718953757165835,0.07799235284498973,0.17591427692713069,0.24699901104335886,0.32257715342395166,0.3966527855040347,0.4490276684205057,0.4515124816018625,0.5200098588292459,0.587389491373675,0.5961665197381718,0.5289499525702359,0.46044803618942876,0.46153402877259975,0.5617717177329808,0.666044016518696,0.7555122712267028,0.7708108966302678,0.7838470517644396,0.8041366488180524,0.7928454247069583,0.7712396048496126,0.7707889363401952,0.7711719743000591,0.7850881759383732,0.7706032877310633,0.7422246899646501,0.7372481979461387,0.7368759782134031,0.7160896695424803,0.7307366414509238,0.7451190740564506,0.7722981907065636,0.8103396063703334,0.8577354628464295,0.8427639285432678,0.817300269749266,0.7839181382574134,0.7936511853571329,0.773943341316798,0.7887395790477827,0.8031328911361895,0.7807694870884649,0.8119727007907009,0.8605603554380892,0.8627842801712049,0.8359958737783897,0.8076087348687446,0.7919699970319876,0.7702973597108631,0.7478855096571957,0.7663539788449807,0.7707883730530556,0.7742439672972656,0.7936597727837356,0.7827947691063244,0.7739517812720074,0.7585655980374115,0.736781066699959,0.7109035439742382,0.6538949347719916,0.5532257719902134,0.48494012192508595,0.4387190070120326,0.3632002034879598,0.3366597599842702,0.3843273075654263,0.4612241745372012,0.559407005796789,0.6632622880810608,0.7331342220438479,0.7631747058705276,0.7827423129351683,0.7936594539846009,0.7753884318438748,0.7973621565629188,0.8034902342028296,0.7815348420776536,0.7838312478913343,0.7710167490603714,0.7706345955483487,0.7510815773626804,0.7280730512130846,0.7042688837774183,0.703909817777161,0.7212335838088517,0.7579388422207609,0.8086894078878224,0.8401004354800383,0.8681951171605675,0.8835981366646095,0.8956903112300116,0.8719902144515768,0.8714175104388042,0.8713463823884764,0.8571624106365388,0.8381845107191719,0.837874652405934,0.837874652405934,0.837923593965991,0.8509814418963391,0.8762714439630104,0.8913244964235494,0.8431016186948508,0.7670106590730486,0.6895034486835545,0.5938326407863075,0.5225870508945638,0.46592092870970525,0.43672323240210975,0.4810742279259719,0.5680566619080194,0.6542303046985776,0.7252535056606391,0.7062245925848245,0.7272506518906079,0.7709338029864545,0.8254606082617482,0.8605654905494724,0.8414975771348825,0.8372847837398272,0.801884717510724,0.7663556650479535,0.7393218064623666,0.7208228158429701,0.7044511463013858,0.739204080281838,0.7956434033229538,0.8296526565275464,0.8378684937998706,0.8371590265880284,0.8134688906673659,0.7893943348342765,0.7807414233668855,0.8068176555280511,0.8390001398161582,0.8936314367585165,0.9234209779481297,0.9715567919712358,0.9988049444700353,1.0,0.9480184122189765,0.9059953426547995,0.8555670921676839,0.8495749993079924,0.8711487731322807,0.8722771260562352,0.8973403068124304,0.9042777081769735,0.876149542373434,0.8189548449153374,0.7295448818326031,0.6510993998105921,0.556000529547747,0.47855796833466613,0.4124406898379629,0.33599251537607433,0.2728004685844301,0.30459659225201285,0.38925450988274246,0.46686707438337205,0.5665085769956111,0.6708180653402707,0.7744602506584544,0.8265690844683391,0.8048606530107829,0.7926857007207957,0.7904147879678716,0.8408680764781762,0.8904035619456385,0.9047652229166614,0.8850559571331997,0.8344316034747532,0.8028696751169351,0.7796159631859707,0.8187168106502805,0.8333763753672079,0.8057515653136669,0.7785613118064818,0.7737250707910173,0.8010549072208768,0.8164504099945686,0.8417848468936908,0.8707952768585558,0.9038470012633351,0.9371799612892868,0.938503226504543,0.93839401804708,0.9204041661850129,0.8759562489095947,0.8427897966974518,0.8385419714345179,0.8602815241038311,0.806429510330557,0.7306835827865958,0.653035062935083,0.5633949969096719,0.48516359409993814,0.38985359890546434,0.3113917200009899,0.24111454415038125,0.19159311803241508,0.13389490449341412,0.10994239041361542,0.16029108544903714,0.23963399612340197,0.3298036612204953,0.43404494981412967,0.5383566612653681,0.6426683727166065,0.7455711233057754,0.776932596543749,0.7404542393244684,0.7551513866461264,0.7730926612118161,0.7936028674427362,0.7651887745808299,0.7382027653409606,0.7170382687962782,0.7037531841472022,0.7037149496525634,0.7102814615922144,0.7224239795751819,0.698562228121439,0.6720426287122923,0.6701608654447639,0.6702064413261075,0.6833640991715342,0.7288197136498731,0.7578371331666789,0.8093094436473871,0.836666993588767,0.8463873075716162,0.869315926035922,0.8443020933971122,0.8379306207057207,0.8485263752216046
0,1,2,3,4,5,6,7,8,9,10,11,12,13,14,15,16,17,18,19,20,21,22,23,24,25,26,27,28,29,30,31,32,33,34,35,36,37,38,39,40,41,42,43,44,45,46,47,48,49,50,51,52,53,54,55,56,57,58,59,60,61,62,63,64,65,66,67,68,69,70,71,72,73,74,75,76,77,78,79,80,81,82,83,84,85,86,87,88,89,90,91,92,93,94,95,96,97,98,99,100,101,102,103,104,105,106,107,108,109,110,111,112,113,114,115,116,117,118,119,120,121,122,123,124,125,126,127,128,129,130,131,132,133,134,135,136,137,138,139,140,141,142,143,144,145,146,147,148,149,150,151,152,153,154,155,156,157,158,159,160,161,162,163,164,165,166,167,168,169,170,171,172,173,174,175,176,177,178,179,180,181,182,183,184,185,186,187,188,189,190,191,192,193,194,195,196,197,198,199,200,201,202,203,204,205,206,207,208,209,210,211,212,213,214,215,216,217,218,219,220,221,222,223,224,225,226,227,228,229,230,231,232,233,234,235,236,237,238,239,240,241,242,243,244,245,246,247,248,249,250,251,252,253,254
0.8207344255480447,0.821819796441325,0.8047449180543089,0.7776120218178724,0.7960801401590873,0.8058732001168658,0.7958874833512395,0.7995507196720779,0.7906069879157065,0.7657314581680912,0.7556222517578433,0.7559119284378788,0.7707185741437774,0.7867127158219462,0.7781080872978712,0.7792275732548184,0.7448923535826117,0.7455176719940293,0.7554291385706482,0.7546059971776091,0.740625946170808,0.7511676681206181,0.7849921083823523,0.7770648862764769,0.7824614683196147,0.7547145640205684,0.6899636597003194,0.6322048306102039,0.5765776520795338,0.5113663144680092,0.45774462942183547,0.3978344213450251,0.33247886712420405,0.27847750997974163,0.21897131786001323,0.15724047041139633,0.11489680184273254,0.1130454337410316,0.1547764546344843,0.21900224226682674,0.2736674173220006,0.33239537080819614,0.39067393644769854,0.44581430988702975,0.5112802283781739,0.5769172595877881,0.6420496025651112,0.6949708100388357,0.7557838270939894,0.819611693208715,0.869726102952292,0.9193417057473683,0.9710156420192,0.9953277860849248,0.9775944956757803,0.9295517666875308,0.8857032285766575,0.8474466664021065,0.8163791268740765,0.7859729979457182,0.7759159646218023,0.8022656344277075,0.7915468960435095,0.774191526189294,0.7678453142535493,0.7382669613913619,0.7008547397706972,0.668713040004207,0.6484086482199909,0.6160449553039893,0.580069088739811,0.5496997794805512,0.5260410371526563,0.5067677913920918,0.5289323518679208,0.5513828819019384,0.5731616305888094,0.6016704623706612,0.630482087849459,0.6618827746618008,0.6784054562295752,0.6897362643877365,0.7028673282755271,0.7176697878504736,0.7217643303956667,0.736102546419962,0.7323353213582364,0.7290623346342326,0.7219350134326881,0.7201837222855714,0.7389954903765719,0.7528963060858946,0.7394891313597314,0.7482152372621411,0.7326530651884662,0.7263510796879915,0.7507597349300332,0.7434283447319667,0.7213490594204752,0.725319950941512,0.7206215122316828,0.7291316125656717,0.7262803023992266,0.7191929599457354,0.7070828956966677,0.699473288643782,0.6849138515520132,0.6891533417992735,0.7239301852254272,0.7334204886393962,0.7240217855090525,0.7395305426864454,0.7541666649924585,0.7355384753036533,0.6738610649178831,0.6202440756203957,0.5603338675435849,0.49474367665918173,0.4360155419233229,0.3812971885235221,0.315883894793322,0.2566711744806023,0.20238093767823662,0.14051353786564347,0.08867623457285889,0.02860809866243308,0.0,0.021043720186747272,0.07384760151645686,0.13215053265751964,0.19775188512448105,0.2633889163340961,0.32902263018134104,0.3920621192191245,0.4434400825918905,0.5078562249622545,0.5673654143327367,0.6213667714772004,0.6867223256980206,0.7466325337748314,0.8002067514711841,0.8586679826454717,0.9132998017099774,0.9702673966791209,1.0,0.9737543300990632,0.9317299366762835,0.8865518500222276,0.8326512272382711,0.7938117764288348,0.7666392794172423,0.7556705302407627,0.7555179667041836,0.7462537086824299,0.7222392475851382,0.7144317875434618,0.6883745910548309,0.6618628385697511,0.6233606067821809,0.5873878555475898,0.5530940064843883,0.5141061977125045,0.4884819264625455,0.462455052503993,0.4382165980763779,0.4553458464725857,0.480616552057584,0.5175754632219345,0.5579965857520519,0.5830788593231984,0.6291024379524588,0.6635980005149125,0.686118291996435,0.7144760411074489,0.7221443899217275,0.7364630860458949,0.7491771195248216,0.7788105266595409,0.7790026613181804,0.7716523407210434,0.7557314358688969,0.7401936683596935,0.7497369108228233,0.7470411574185145,0.7313276779419566,0.7321872739579982,0.7482099133725635,0.7393084980894873,0.7510242773428466,0.7272984663120821,0.7202745247971767,0.7255324538373995,0.7238520411905047,0.7369709585188651,0.7296182518502654,0.7328699754973513,0.7358980970913067,0.726477361414041,0.7305898533298762,0.7059636268355369,0.7098153373417406,0.7075513606961903,0.7293004987500846,0.73752021167354,0.744529594022433,0.7503116796975347,0.7227248613684942,0.7126573157048814,0.660541612366603,0.6009361336776862,0.5470710162220009,0.4849261288037243,0.43335917203308316,0.3685353190117562,0.30303785058734967,0.2474405570491025,0.1901394544659074,0.14376196713600908,0.10429342966757105,0.07388078567418788,0.09816198860138492,0.15210486483733687,0.20609040896976882,0.2714459631905899,0.33135617126740025,0.384977644968969,0.4495741665783637,0.5014536427420246,0.5635020239235242,0.6226587395801348,0.676992309810601,0.7422025690229006,0.7969735243729548,0.8540766885535285,0.9043275446242967,0.9511838142855935,0.9622376550036744,0.9205822635074181,0.8750324544660355,0.8422696450013651,0.816922867220645,0.7851613546716831,0.758574230041472,0.7512103260326977,0.7425523745182905,0.7551372040677711,0.7609165859127391,0.7521997647973091,0.7154588289384636,0.6878352706488493,0.6616967351711684,0.6364523169968139,0.6023571478106415,0.5739020473636485,0.5584736400288395
0,1,2,3,4,5,6,7,8,9,10,11,12,13,14,15,16,17,18,19,20,21,22,23,24,25,26,27,28,29,30,31,32,33,34,35,36,37,38,39,40,41,42,43,44,45,46,47,48,49,50,51,52,53,54,55,56,57,58,59,60,61,62,63,64,65,66,67,68,69,70,71,72,73,74,75,76,77,78,79,80,81,82,83,84,85,86,87,88,89,90,91,92,93,94,95,96,97,98,99,100,101,102,103,104,105,106,107,108,109,110,111,112,113,114,115,116,117,118,119,120,121,122,123,124,125,126,127,128,129,130,131,132,133,134,135,136,137,138,139,140,141,142,143,144,145,146,147,148,149,150,151,152,153,154,155,156,157,158,159,160,161,162,163,164,165,166,167,168,169,170,171,172,173,174,175,176,177,178,179,180,181,182,183,184,185,186,187,188,189,190,191,192,193,194,195,196,197,198,199,200,201,202,203,204,205,206,207,208,209,210,211,212,213,214,215,216,217,218,219,220,221,222,223,224,225,226,227,228,229,230,231,232,233,234,235,236,237,238,239,240,241,242,243,244,245,246,247,248,249,250,251,252,253,254
0.8207344255480447,0.821819796441325,0.8047449180543089,0.7776120218178724,0.7960801401590873,0.8058732001168658,0.7958874833512395,0.7995507196720779,0.7906069879157065,0.7657314581680912,0.7556222517578433,0.7559119284378788,0.7707185741437774,0.7867127158219462,0.7781080872978712,0.7792275732548184,0.7448923535826117,0.7455176719940293,0.7554291385706482,0.7546059971776091,0.740625946170808,0.7511676681206181,0.7849921083823523,0.7770648862764769,0.7824614683196147,0.7547145640205684,0.6899636597003194,0.6322048306102039,0.5765776520795338,0.5113663144680092,0.45774462942183547,0.3978344213450251,0.33247886712420405,0.27847750997974163,0.21897131786001323,0.15724047041139633,0.11489680184273254,0.1130454337410316,0.1547764546344843,0.21900224226682674,0.2736674173220006,0.33239537080819614,0.39067393644769854,0.44581430988702975,0.5112802283781739,0.5769172595877881,0.6420496025651112,0.6949708100388357,0.7557838270939894,0.819611693208715,0.869726102952292,0.9193417057473683,0.9710156420192,0.9953277860849248,0.9775944956757803,0.9295517666875308,0.8857032285766575,0.8474466664021065,0.8163791268740765,0.7859729979457182,0.7759159646218023,0.8022656344277075,0.7915468960435095,0.774191526189294,0.7678453142535493,0.7382669613913619,0.7008547397706972,0.668713040004207,0.6484086482199909,0.6160449553039893,0.580069088739811,0.5496997794805512,0.5260410371526563,0.5067677913920918,0.5289323518679208,0.5513828819019384,0.5731616305888094,0.6016704623706612,0.630482087849459,0.6618827746618008,0.6784054562295752,0.6897362643877365,0.7028673282755271,0.7176697878504736,0.7217643303956667,0.736102546419962,0.7323353213582364,0.7290623346342326,0.7219350134326881,0.7201837222855714,0.7389954903765719,0.7528963060858946,0.7394891313597314,0.7482152372621411,0.7326530651884662,0.7263510796879915,0.7507597349300332,0.7434283447319667,0.7213490594204752,0.725319950941512,0.7206215122316828,0.7291316125656717,0.7262803023992266,0.7191929599457354,0.7070828956966677,0.699473288643782,0.6849138515520132,0.6891533417992735,0.7239301852254272,0.7334204886393962,0.7240217855090525,0.7395305426864454,0.7541666649924585,0.7355384753036533,0.6738610649178831,0.6202440756203957,0.5603338675435849,0.49474367665918173,0.4360155419233229,0.3812971885235221,0.315883894793322,0.2566711744806023,0.20238093767823662,0.14051353786564347,0.08867623457285889,0.02860809866243308,0.0,0.021043720186747272,0.07384760151645686,0.13215053265751964,0.19775188512448105,0.2633889163340961,0.32902263018134104,0.3920621192191245,0.4434400825918905,0.5078562249622545,0.5673654143327367,0.6213667714772004,0.6867223256980206,0.7466325337748314,0.8002067514711841,0.8586679826454717,0.9132998017099774,0.9702673966791209,1.0,0.9737543300990632,0.9317299366762835,0.8865518500222276,0.8326512272382711,0.7938117764288348,0.7666392794172423,0.7556705302407627,0.7555179667041836,0.7462537086824299,0.7222392475851382,0.7144317875434618,0.6883745910548309,0.6618628385697511,0.6233606067821809,0.5873878555475898,0.5530940064843883,0.5141061977125045,0.4884819264625455,0.462455052503993,0.4382165980763779,0.4553458464725857,0.480616552057584,0.5175754632219345,0.5579965857520519,0.5830788593231984,0.6291024379524588,0.6635980005149125,0.686118291996435,0.7144760411074489,0.7221443899217275,0.7364630860458949,0.7491771195248216,0.7788105266595409,0.7790026613181804,0.7716523407210434,0.7557314358688969,0.7401936683596935,0.7497369108228233,0.7470411574185145,0.7313276779419566,0.7321872739579982,0.7482099133725635,0.7393084980894873,0.7510242773428466,0.7272984663120821,0.7202745247971767,0.7255324538373995,0.7238520411905047,0.7369709585188651,0.7296182518502654,0.7328699754973513,0.7358980970913067,0.726477361414041,0.7305898533298762,0.7059636268355369,0.7098153373417406,0.7075513606961903,0.7293004987500846,0.73752021167354,0.744529594022433,0.7503116796975347,0.7227248613684942,0.7126573157048814,0.660541612366603,0.6009361336776862,0.5470710162220009,0.4849261288037243,0.43335917203308316,0.3685353190117562,0.30303785058734967,0.2474405570491025,0.1901394544659074,0.14376196713600908,0.10429342966757105,0.07388078567418788,0.09816198860138492,0.15210486483733687,0.20609040896976882,0.2714459631905899,0.33135617126740025,0.384977644968969,0.4495741665783637,0.5014536427420246,0.5635020239235242,0.6226587395801348,0.676992309810601,0.7422025690229006,0.7969735243729548,0.8540766885535285,0.9043275446242967,0.9511838142855935,0.9622376550036744,0.9205822635074181,0.8750324544660355,0.8422696450013651,0.816922867220645,0.7851613546716831,0.758574230041472,0.7512103260326977,0.7425523745182905,0.7551372040677711,0.7609165859127391,0.7521997647973091,0.7154588289384636,0.6878352706488493,0.6616967351711684,0.6364523169968139,0.6023571478106415,0.5739020473636485,0.5584736400288395
0,1,2,3,4,5,6,7,8,9,10,11,12,13,14,15,16,17,18,19,20,21,22,23,24,25,26,27,28,29,30,31,32,33,34,35,36,37,38,39,40,41,42,43,44,45,46,47,48,49,50,51,52,53,54,55,56,57,58,59,60,61,62,63,64,65,66,67,68,69,70,71,72,73,74,75,76,77,78,79,80,81,82,83,84,85,86,87,88,89,90,91,92,93,94,95,96,97,98,99,100,101,102,103,104,105,106,107,108,109,110,111,112,113,114,115,116,117,118,119,120,121,122,123,124,125,126,127,128,129,130,131,132,133,134,135,136,137,138,139,140,141,142,143,144,145,146,147,148,149,150,151,152,153,154,155,156,157,158,159,160,161,162,163,164,165,166,167,168,169,170,171,172,173,174,175,176,177,178,179,180,181,182,183,184,185,186,187,188,189,190,191,192,193,194,195,196,197,198,199,200,201,202,203,204,205,206,207,208,209,210,211,212,213,214,215,216,217,218,219,220,221,222,223,224,225,226,227,228,229,230,231,232,233,234,235,236,237,238,239,240,241,242,243,244,245,246,247,248,249,250,251,252,253,254
0.43119647516768755,0.42755789658612664,0.4510725380049958,0.49784035246048153,0.5553871260738121,0.5904084262069091,0.6273536207715928,0.6614087838286842,0.6803695170534321,0.698795519775602,0.7194413300993514,0.7476409321807387,0.7621062428427801,0.7728118045465935,0.7788776988752926,0.7789017520191754,0.7789017520191754,0.778896523417693,0.7750971296125633,0.7707072202045027,0.778813738457462,0.7789017520191754,0.7789017520191754,0.7789017520191754,0.7789014772051288,0.7776616027331362,0.7642927529237531,0.7621376701981515,0.7621355556829521,0.7621355556829521,0.7621355556829521,0.7621355556829521,0.7621355556829521,0.7613925781211497,0.7436114390026363,0.7139790487202651,0.6965426960165131,0.7113292023883904,0.7396266327873036,0.7454493610674284,0.7553491288429128,0.7834725430728844,0.8020337442976506,0.8384727548816084,0.8837739155366917,0.9358147142418305,0.9674078777275843,0.9266358617705055,0.868356501875301,0.821942545663932,0.7636144319369469,0.7036511178748313,0.6436873098017497,0.5837235017286686,0.5237761368780738,0.4687946432073946,0.4202325332597996,0.36063446577256664,0.3006706576994851,0.24070684962640398,0.18074304155332288,0.12077923348024133,0.06117793932523097,0.018391217593056064,0.016793547213256543,0.05568507469908934,0.10165633322623147,0.16042604577959296,0.21870661185323637,0.26513702279663565,0.32355238273358844,0.38327398184935,0.43274460297279504,0.4852535282772459,0.5310181891461367,0.5762551182908708,0.6256988092033609,0.6707856880710714,0.7094471894375476,0.7170675027438522,0.7243493676813373,0.7024037138016552,0.6826924999037629,0.6656503593395964,0.6373331445710078,0.6162653357159542,0.5974869891199928,0.5843193712926757,0.5956605243833912,0.6122886524894231,0.6300396026465205,0.6499126351639657,0.6656575168342942,0.6897499715670004,0.7088098030093091,0.7266940898930583,0.746515194419813,0.7618869470224501,0.7762699658770329,0.7646347267554388,0.7446688893487738,0.730701078455694,0.7408152568893505,0.7554528975580606,0.7621106091725867,0.7644914312631064,0.7821194632634729,0.7953086604279151,0.7956667313217627,0.793615625095639,0.7802063892684032,0.7789021544254588,0.7789017520191754,0.7789017520191754,0.7789017520191754,0.7789017520191754,0.7789018403522616,0.7794198229140157,0.7844203874684921,0.7639621527136577,0.7398481312836827,0.7295121047377793,0.7477691652987406,0.7709709684308448,0.80611659524023,0.837929156897151,0.8607820097766148,0.8645015245122256,0.8861991916694738,0.9261073417243033,0.971474292757659,0.9999999999999998,0.9597874716492096,0.9003087155291272,0.8403449303572168,0.7808485287715154,0.7331878991804051,0.6772113545833387,0.6172558944011148,0.5572920863280337,0.4973282782549526,0.43736447018187063,0.3774009892683694,0.31870791303369406,0.272129409502025,0.2142735690455957,0.15431162615268756,0.09435110950211079,0.03942503492282046,0.02824416071379754,0.05983081620132347,0.1158545396904429,0.16235922979912387,0.22039130316961164,0.28033618912927394,0.33496772817085296,0.38377123476938,0.44117946837221544,0.4863775019162777,0.5315797629643855,0.5804308958021129,0.6299223534450695,0.6709649852692741,0.7017990748827925,0.7073086478090815,0.692509245660905,0.6740440530807994,0.6505952272874407,0.6225438407077741,0.5973982845841734,0.5772392527708401,0.5619259948708548,0.5655258312585565,0.5850411218797966,0.6100492549426482,0.6353318329551076,0.6648128552999306,0.6878886480685289,0.7162143331098922,0.7300823570990878,0.746736095047215,0.7618104811892226,0.774579992470507,0.7794650747560803,0.7918636911488062,0.7956635207982743,0.7956679483553988,0.795606592554009,0.7874553201594339,0.784552696624168,0.7799763927642369,0.7876674032764377,0.7956233170413796,0.7956679483553988,0.7956679483553988,0.7956679483553988,0.7957074323875231,0.8016099390880898,0.8005292669737158,0.7953507294195206,0.7837662033742168,0.7856027401520633,0.7896041755687697,0.7956415995444923,0.7938897365002975,0.7656215268839246,0.7460725698609714,0.7511062360919369,0.7777865490812099,0.7950363870197095,0.7970673144925795,0.8105514307253696,0.817678316708981,0.8520128852261328,0.9005268438801097,0.9516091430553681,0.9511441869279438,0.8961357078741041,0.8492265210561378,0.7900460828924778,0.7300825332754657,0.6701187252023837,0.6101549171293035,0.5502219710771421,0.497301669300348,0.4469126084562405,0.3870658811732006,0.3271020731001182,0.2671382650270384,0.20717512435949836,0.14868262100651308,0.10221107323303857,0.04441120317570024,0.001625021256832504,0.0,0.03531334061764935,0.08392160794951065,0.14366016024497097,0.20322369164945253,0.25162125427674886,0.3067998287395828,0.3665077855131271,0.41597840663657215,0.4684875380515574,0.5148134488507135,0.5636708033415119,0.616281111852534,0.6706574343202008,0.7100859817618026,0.7237030474816011,0.7181138031283993,0.7108852198775748,0.6886954343011757,0.6678330992333226,0.6535885350305615
0,1,2,3,4,5,6,7,8,9,10,11,12,13,14,15,16,17,18,19,20,21,22,23,24,25,26,27,28,29,30,31,32,33,34,35,36,37,38,39,40,41,42,43,44,45,46,47,48,49,50,51,52,53,54,55,56,57,58,59,60,61,62,63,64,65,66,67,68,69,70,71,72,73,74,75,76,77,78,79,80,81,82,83,84,85,86,87,88,89,90,91,92,93,94,95,96,97,98,99,100,101,102,103,104,105,106,107,108,109,110,111,112,113,114,115,116,117,118,119,120,121,122,123,124,125,126,127,128,129,130,131,132,133,134,135,136,137,138,139,140,141,142,143,144,145,146,147,148,149,150,151,152,153,154,155,156,157,158,159,160,161,162,163,164,165,166,167,168,169,170,171,172,173,174,175,176,177,178,179,180,181,182,183,184,185,186,187,188,189,190,191,192,193,194,195,196,197,198,199,200,201,202,203,204,205,206,207,208,209,210,211,212,213,214,215,216,217,218,219,220,221,222,223,224,225,226,227,228,229,230,231,232,233,234,235,236,237,238,239,240,241,242,243,244,245,246,247,248,249,250,251,252,253,254
0.8730003128807724,0.8941018713973727,0.9176599311561604,0.9490310298999038,0.9686134262477399,1.0000000000000002,0.9949806491103816,0.9701990101640028,0.9362780837977323,0.9101431940304743,0.8776563927032714,0.8538110668596011,0.8186677428644977,0.787080906792262,0.7494913162448238,0.7124400239576467,0.6805766168873582,0.6463570672876571,0.6305304919984522,0.6129908191890825,0.5824079722088455,0.5797804425094017,0.5752902282678798,0.5441938163034796,0.4858832709810017,0.42651340752658107,0.367144086437339,0.31043258215736613,0.28582873673849085,0.28289352763416775,0.2858853480506147,0.31080245983809784,0.3675871228585772,0.4269564687619123,0.4863263074022395,0.5445432413616118,0.5725181733162927,0.5665090341139452,0.5677649262867812,0.5887704122183137,0.5893249462672323,0.579415983144435,0.5734242847990056,0.5723382272582895,0.5631169642623768,0.5729643031351432,0.5825186481515863,0.590746976832351,0.608317976049823,0.607166766449575,0.612767263407098,0.6085904012708483,0.6056749181015124,0.6056683827559743,0.6056683827559743,0.6044208729626581,0.5916245620680669,0.5891430840502665,0.5774508198895336,0.5806498166336074,0.5588147279490785,0.5017198491092991,0.45537125452994975,0.4076079401764334,0.3586626690860897,0.3108491220751206,0.2574147580352142,0.20844952629159352,0.15055664075938435,0.11687870801287414,0.11854004512201421,0.15253234082613765,0.20492701540062686,0.25218499322520427,0.3109921106065061,0.36675793270052304,0.41410824980655847,0.47297154277419584,0.5323417483086141,0.5915815861010307,0.6416373244931262,0.6904046921271421,0.728608663947367,0.7534275229392924,0.7749811734157424,0.7899735149393214,0.8149299272969588,0.8452616840997538,0.8692307524004883,0.8921413302623697,0.9239296651889684,0.9522988362224838,0.9840433596075668,0.9786968128047058,0.9593789945075051,0.941188225360649,0.909330535818017,0.8702805941620861,0.8386868652799115,0.8065260005801587,0.7730334231255573,0.7438121670900635,0.7118817650160969,0.680334970241925,0.6443182397173548,0.6117522375855866,0.6056809648919728,0.6056683827559743,0.6061875506126431,0.6151578102887185,0.6064960358327605,0.6054107188014479,0.594903388376691,0.590314284495556,0.6030240876531792,0.6142987008390788,0.6325992396658109,0.6175396579995274,0.6141770438759508,0.6164201554551825,0.5975896918626609,0.5896139230051733,0.5895282948974703,0.5895254519113744,0.5863245702281394,0.5776020590307176,0.5977848842481477,0.5794322437438983,0.5275910230522511,0.48136138188339284,0.43452302952054533,0.38981323145823255,0.33622664275334935,0.2768852989089219,0.21751599377159647,0.15976007001536963,0.1148280462688398,0.0912761239876485,0.1135504850079625,0.16680139430253438,0.21445996965141778,0.26978854788190776,0.31957121452410164,0.3725499737931026,0.42900905236212616,0.4758819418662352,0.5329512431198056,0.5793423976301717,0.6348308378104195,0.6770565596234916,0.7205038378434667,0.7508149915661406,0.7747800095366737,0.7914774088984846,0.8155901720411791,0.8412379360189506,0.8660725799073064,0.8925923800031537,0.9222668419808862,0.9509960517360241,0.9697894088034096,0.9576809572952525,0.928705052035087,0.8990027122645199,0.860721620174371,0.8345138291964724,0.8021784070381022,0.7717266887390284,0.7336827628537315,0.7033662184471996,0.6705173141063272,0.6375543281532672,0.6111237480820633,0.5908918461513404,0.5828236536288405,0.5735185747809683,0.5733882070389666,0.5724505925390233,0.5597231747417124,0.548753295028588,0.5411902919303062,0.5411402605113051,0.547129778222543,0.566361334917086,0.5861934678293295,0.5990072590952942,0.5899617380897249,0.5888795658405022,0.5765914862951529,0.5733960596852088,0.574638806617797,0.5901520230361765,0.6035821424479668,0.5930500894782462,0.6037617368325259,0.5925662619809813,0.540083022103534,0.4932843301437402,0.4405673461552102,0.39292522748551995,0.33410349272887285,0.2747358324114353,0.21830888772185664,0.17140466094697282,0.11279966488346704,0.060263810325563716,0.01603128934006315,0.0,0.027600495592327245,0.07740911385761318,0.12394989985308835,0.18055103347088397,0.22862495481588163,0.28360515309488776,0.3428848621838372,0.39478351630038566,0.44565276396698583,0.5048510612865587,0.5565882051609348,0.6050234064727593,0.6497342112367022,0.694984282686695,0.73521429492895,0.764767894190993,0.7871801630997906,0.8102491278409427,0.8310244940577058,0.8615919633338958,0.8924742837261161,0.9138083359763669,0.9402264764370629,0.9747038933013854,0.987915767012004,0.9653538374534072,0.9446901396707121,0.9157570895609772,0.890071203736827,0.8604602506626324,0.8293231685751146,0.7867420215585856,0.7547649255455242,0.7171695900202855,0.6809796212581924,0.6541068088074182,0.6292478084542215,0.6218787044394121,0.6217942722429759,0.6171548060978884,0.6060641192860563,0.6055323763387206,0.5963980593229248,0.5883796922900626,0.577238125938573,0.5972078925415134,0.5950158744238292
0,1,2,3,4,5,6,7,8,9,10,11,12,13,14,15,16,17,18,19,20,21,22,23,24,25,26,27,28,29,30,31,32,33,34,35,36,37,38,39,40,41,42,43,44,45,46,47,48,49,50,51,52,53,54,55,56,57,58,59,60,61,62,63,64,65,66,67,68,69,70,71,72,73,74,75,76,77,78,79,80,81,82,83,84,85,86,87,88,89,90,91,92,93,94,95,96,97,98,99,100,101,102,103,104,105,106,107,108,109,110,111,112,113,114,115,116,117,118,119,120,121,122,123,124,125,126,127,128,129,130,131,132,133,134,135,136,137,138,139,140,141,142,143,144,145,146,147,148,149,150,151,152,153,154,155,156,157,158,159,160,161,162,163,164,165,166,167,168,169,170,171,172,173,174,175,176,177,178,179,180,181,182,183,184,185,186,187,188,189,190,191,192,193,194,195,196,197,198,199,200,201,202,203,204,205,206,207,208,209,210,211,212,213,214,215,216,217,218,219,220,221,222,223,224,225,226,227,228,229,230,231,232,233,234,235,236,237,238,239,240,241,242,243,244,245,246,247,248,249,250,251,252,253,254
0.24539041211554347,0.2405475767990799,0.2840230667330643,0.36638164703346243,0.4588474437226391,0.507167770053901,0.5864584032267994,0.6673664631223573,0.7615913422724616,0.8529655726661987,0.9324297572329523,0.9405930718598516,0.8613657397889107,0.7937196364536114,0.7220895204297073,0.6437713762713675,0.5897923904895115,0.5194886562412466,0.45207830152304807,0.38054062088672724,0.2919090843081813,0.222548992295446,0.14834206613635814,0.09655222717955914,0.07627078141245747,0.09489931300876675,0.18341188827413868,0.2606692450810675,0.33220217830785304,0.40399797757606803,0.4388119181836161,0.4705793899110833,0.4925612632190597,0.45468330994922157,0.40466608593104647,0.35420438075420746,0.29529955558167886,0.2000976367782643,0.10881106250978512,0.07813549397424069,0.07551481583441833,0.07944377548271042,0.10089341631197568,0.16965774732101746,0.16443180716135597,0.16381243472867624,0.19645124560771432,0.25534538451592814,0.3204129736436645,0.3808416495025724,0.454199206545685,0.5244530383140504,0.6030330700493107,0.6768844232681501,0.743374968072835,0.8026154926848821,0.8678999762183568,0.9124993164996549,0.9469207942224673,0.9701629143269321,0.9574807870430866,0.9614315042296142,0.956963967051712,0.9692163528206108,0.9517400084796956,0.9456481098940936,0.9521081296535674,0.9873283822447685,0.9690045421766071,0.9342741287457206,0.896049686205131,0.8912426348928988,0.8912340009556341,0.8912340009556341,0.8912355568153925,0.8947205656966397,0.923441339831546,0.877293800993876,0.7949804784787502,0.6999375948928956,0.6207671453598347,0.5448679417441267,0.5155134760617002,0.5650193219000861,0.6501489857356924,0.729689607908854,0.8232421900426634,0.901871703654376,0.9575610315876193,0.903469568224113,0.8363693886911077,0.776866261210515,0.7151954238229155,0.6539953125970084,0.611513909331411,0.5776956646904883,0.5398460310865709,0.49299197085287494,0.4381173447728588,0.38262887871428886,0.32532618566868754,0.274732643452793,0.22436572845088465,0.18768094791648782,0.1972271220841102,0.23379994930844505,0.2893987190395717,0.3492786379700683,0.4157224223842815,0.4907535353795063,0.558230004813931,0.625641391086075,0.7021296829909729,0.7721165720396388,0.8271017457535668,0.8745624739665323,0.9076198721952937,0.9325862167189904,0.9363643474004566,0.9283458819039168,0.9258171006053977,0.9172318581092997,0.8965045199609363,0.9053000437105987,0.8973401116135951,0.9290590319372094,0.9582486808106583,0.9025803270012172,0.8637181992999543,0.8218503237417534,0.8097105756697389,0.798700133939461,0.7827097057997219,0.7863685271914433,0.8079102821961688,0.8209249967758621,0.7886493409806019,0.6962650722098549,0.6154151461907538,0.5240274616512051,0.44869022869603326,0.39350505169114625,0.38278920700758823,0.4536777384320847,0.5330567172415077,0.631724036958262,0.7144361443858194,0.8050982051872775,0.8294713165599039,0.7600935147923322,0.6971868749515235,0.6314781763931863,0.5712945115192043,0.5206824246251753,0.47024533445950434,0.4210608010378025,0.38192285353324484,0.33259580502076025,0.2900599277230578,0.2383978581565782,0.18635905355677895,0.12417374418171256,0.0667986076116347,0.022641432231250924,0.0,0.027159378066648365,0.06824371606158852,0.1370138816954749,0.19098838196579226,0.25871311933817864,0.3342273430698941,0.40930263230868613,0.47205476183935646,0.5421159874573838,0.6114424065894908,0.6761813782305617,0.740677323060178,0.7941373873823241,0.8321906014873055,0.8511652771494966,0.8639618744601054,0.865196508712986,0.885778108277433,0.8870078317082224,0.8758086583676881,0.8708003919135963,0.8781528478558687,0.8964359403589017,0.9147320739996796,0.8819896028091585,0.8642453658966933,0.8640425011945418,0.8639820358623918,0.8530346681921661,0.842173949132039,0.8669637500729963,0.8982460177191904,0.8600206591286059,0.7641398389491934,0.682593257479271,0.5936608179343286,0.5233898943656148,0.4867661025945975,0.5159084835304717,0.5999929559418713,0.6791504189525752,0.7754636063316318,0.8568525491580874,0.948623203817649,0.9681983767019049,0.8905020173297031,0.8208123346395158,0.7665680479405608,0.7052803523126712,0.6569157545330708,0.6278760026616621,0.5789041086222402,0.5297342473709405,0.4905892632973461,0.4411871762371642,0.3904129111084269,0.32878442859307677,0.2618017157391366,0.208160344916962,0.17416495706601998,0.1588874965035525,0.19087775061812096,0.24405248364088905,0.318182281188955,0.3938810844036742,0.46174507015162236,0.5289685851133883,0.5997859109610304,0.6658600976739035,0.7241522700800744,0.7978032216005428,0.859029846192469,0.9201333920341228,0.9607865376069555,0.9886082963629925,0.9826752058231647,0.9995757288959939,0.9999999999999996,0.9999940814956187,0.994080587346319,0.9726161098006787,0.9507893914485108,0.9629666213590533,0.9921092394048725,0.9737156896942492,0.9470669418802955,0.9262787554283469,0.9184226619702343,0.9106382291127377,0.9075239347238777
0,1,2,3,4,5,6,7,8,9,10,11,12,13,14,15,16,17,18,19,20,21,22,23,24,25,26,27,28,29,30,31,32,33,34,35,36,37,38,39,40,41,42,43,44,45,46,47,48,49,50,51,52,53,54,55,56,57,58,59,60,61,62,63,64,65,66,67,68,69,70,71,72,73,74,75,76,77,78,79,80,81,82,83,84,85,86,87,88,89,90,91,92,93,94,95,96,97,98,99,100,101,102,103,104,105,106,107,108,109,110,111,112,113,114,115,116,117,118,119,120,121,122,123,124,125,126,127,128,129,130,131,132,133,134,135,136,137,138,139,140,141,142,143,144,145,146,147,148,149,150,151,152,153,154,155,156,157,158,159,160,161,162,163,164,165,166,167,168,169,170,171,172,173,174,175,176,177,178,179,180,181,182,183,184,185,186,187,188,189,190,191,192,193,194,195,196,197,198,199,200,201,202,203,204,205,206,207,208,209,210,211,212,213,214,215,216,217,218,219,220,221,222,223,224,225,226,227,228,229,230,231,232,233,234,235,236,237,238,239,240,241,242,243,244,245,246,247,248,249,250,251,252,253,254
0.8111251082706081,0.8152527957208422,0.7710369952395375,0.7281475733738443,0.7543145405077176,0.7890947660202077,0.7930051811939087,0.7408443872990222,0.6573245767527531,0.5729340149568873,0.48575495016737147,0.40903004695294154,0.30702483978085127,0.22458780093698127,0.14550337504218547,0.06756957257586649,0.015294958588046192,0.0,0.002968281587526711,0.05465956274419348,0.16098627323322656,0.24225793909113857,0.31276869584360867,0.2711074406819929,0.18465324016386298,0.10163876652064108,0.07608973261084273,0.11363835565934188,0.054987935786351194,0.007124861882979339,0.0001441885888393557,0.025773048731450032,0.08636665035129276,0.17161981309545915,0.26095826835284885,0.36337726626562095,0.44841599104193364,0.526718765192137,0.6081131958857666,0.6814172561123923,0.7611698882020113,0.8110977711552945,0.8144143746261356,0.8068086943164481,0.8054184245845128,0.7662158197682221,0.7903492405114854,0.8193333928490549,0.8522724901363956,0.819303246751959,0.8202227490721787,0.8744770864029965,0.8989611894166236,0.9166814633998657,0.9065420821588024,0.9379254664275871,0.9549237178850163,0.9186279398922892,0.9220007303909865,0.9116272997252768,0.880188079703375,0.8428111277819657,0.8549217867398307,0.8305477208766856,0.8284974859705816,0.8030019063352167,0.8202565840764215,0.8455346899072778,0.8321804850966874,0.8007544232480965,0.8286872678588129,0.8571461868739023,0.8477587998247573,0.8212920938504134,0.8113627724998063,0.8094847701711023,0.7461257234119207,0.7554449193573909,0.8095402635497484,0.8142310760148153,0.7934854918872141,0.7661461285635021,0.7900417928072079,0.8177541435973446,0.7944251132756772,0.7530190885402792,0.7044316701174314,0.7253782761921519,0.7821983086427142,0.7968968215751033,0.8175852616658066,0.7687626941535823,0.6726568524960399,0.5835662056673634,0.47112059852866217,0.35800804150153187,0.24494940771010754,0.14583318910615528,0.07181522634070703,0.03997586239733231,0.09075998181310752,0.17674321754677802,0.274216312842241,0.3734858099963141,0.4473431246176327,0.5155505401924101,0.6108859312994159,0.6950551513200995,0.7514286941668722,0.8048670221130285,0.8508709409383552,0.82224961534539,0.7983501247083487,0.8370013923822848,0.8888274841421087,0.8992440113956368,0.9183764673985761,0.9128443003004572,0.8701450110130562,0.9081987446501341,0.907575577815285,0.923395648263762,0.9595860982204938,0.9685504525588247,0.9895968642750494,1.0,0.9488839056154648,0.9334134342566731,0.905309049720942,0.8362876942446364,0.8560377367864325,0.8381660841075984,0.8298047369296331,0.8299847986651878,0.8479135805138238,0.8648868914655399,0.886334977526551,0.8681274117133952,0.8493881618022066,0.8301653630899661,0.8432734270435942,0.8409282028851921,0.8483194912511083,0.8358730482692911,0.8292530607264581,0.8004109566378279,0.7635156776472618,0.7846310219940467,0.7951043526272388,0.7747971165252894,0.7206937848390389,0.6970806198665622,0.7469198247458859,0.7680153861327463,0.7764326654713871,0.8236674777868771,0.7597533163355061,0.6748795168436414,0.5835559122635523,0.4852771502089075,0.3734866117302129,0.28639381756402926,0.18299325065809846,0.10348888795281574,0.07927677750110274,0.141573124236964,0.24948551809226593,0.3363855639262727,0.44165951788032487,0.5310597070312886,0.6020510233893654,0.6710901476101965,0.7459086703674487,0.7931788618405555,0.809725437456918,0.7984769176562798,0.8368198556126556,0.8329522764008201,0.7983045673973219,0.8442191753717898,0.8459475667220104,0.8556869549922475,0.8643987694933299,0.874883706232775,0.8984755631907557,0.9052479519348893,0.9172739993161496,0.9112214345625533,0.957946021850387,0.9446756070292412,0.9335874329838578,0.9314566714979966,0.8926746891776167,0.8599783162192409,0.8252035343116093,0.8089350576969787,0.8070382907472098,0.7978053563877125,0.8259421131877307,0.8448443885831223,0.8072480224281398,0.789072502973978,0.7631127424689694,0.7975607279723738,0.7983422529423878,0.7952028436880836,0.7952005284634076,0.7952005284634076,0.7952029730018983,0.7986632801990448,0.8246694853634953,0.7989635605540384,0.7891923188877277,0.7624549803192107,0.7757609969981365,0.809130904643732,0.8053104755322078,0.809589035930304,0.7588687867276933,0.674640500285415,0.5733228728728132,0.487889109255061,0.3838945857129872,0.2985994806946044,0.18858280515010506,0.09668411315297121,0.02605663665645075,0.02325562894466593,0.08213319010533127,0.18306803817050898,0.2961622365350518,0.40865187637249534,0.49398960865990293,0.5526707777442814,0.6362874230614208,0.712456424339508,0.7716889983405055,0.7949600005569364,0.7980852490140844,0.8178442094695342,0.8105644267889183,0.8296066587499933,0.8400437899744873,0.8764477980772849,0.8986775158935671,0.8922080074747516,0.8392112729041337,0.8477821081476558,0.9149592230834172,0.9606159257461959,0.9401190289151593,0.9335450594515597,0.9334220172058103,0.9177980851552769,0.9223629295930857
0,1,2,3,4,5,6,7,8,9,10,11,12,13,14,15,16,17,18,19,20,21,22,23,24,25,26,27,28,29,30,31,32,33,34,35,36,37,38,39,40,41,42,43,44,45,46,47,48,49,50,51,52,53,54,55,56,57,58,59,60,61,62,63,64,65,66,67,68,69,70,71,72,73,74,75,76,77,78,79,80,81,82,83,84,85,86,87,88,89,90,91,92,93,94,95,96,97,98,99,100,101,102,103,104,105,106,107,108,109,110,111,112,113,114,115,116,117,118,119,120,121,122,123,124,125,126,127,128,129,130,131,132,133,134,135,136,137,138,139,140,141,142,143,144,145,146,147,148,149,150,151,152,153,154,155,156,157,158,159,160,161,162,163,164,165,166,167,168,169,170,171,172,173,174,175,176,177,178,179,180,181,182,183,184,185,186,187,188,189,190,191,192,193,194,195,196,197,198,199,200,201,202,203,204,205,206,207,208,209,210,211,212,213,214,215,216,217,218,219,220,221,222,223,224,225,226,227,228,229,230,231,232,233,234,235,236,237,238,239,240,241,242,243,244,245,246,247,248,249,250,251,252,253,254
0.8111251082706081,0.8152527957208422,0.7710369952395375,0.7281475733738443,0.7543145405077176,0.7890947660202077,0.7930051811939087,0.7408443872990222,0.6573245767527531,0.5729340149568873,0.48575495016737147,0.40903004695294154,0.30702483978085127,0.22458780093698127,0.14550337504218547,0.06756957257586649,0.015294958588046192,0.0,0.002968281587526711,0.05465956274419348,0.16098627323322656,0.24225793909113857,0.31276869584360867,0.2711074406819929,0.18465324016386298,0.10163876652064108,0.07608973261084273,0.11363835565934188,0.054987935786351194,0.007124861882979339,0.0001441885888393557,0.025773048731450032,0.08636665035129276,0.17161981309545915,0.26095826835284885,0.36337726626562095,0.44841599104193364,0.526718765192137,0.6081131958857666,0.6814172561123923,0.7611698882020113,0.8110977711552945,0.8144143746261356,0.8068086943164481,0.8054184245845128,0.7662158197682221,0.7903492405114854,0.8193333928490549,0.8522724901363956,0.819303246751959,0.8202227490721787,0.8744770864029965,0.8989611894166236,0.9166814633998657,0.9065420821588024,0.9379254664275871,0.9549237178850163,0.9186279398922892,0.9220007303909865,0.9116272997252768,0.880188079703375,0.8428111277819657,0.8549217867398307,0.8305477208766856,0.8284974859705816,0.8030019063352167,0.8202565840764215,0.8455346899072778,0.8321804850966874,0.8007544232480965,0.8286872678588129,0.8571461868739023,0.8477587998247573,0.8212920938504134,0.8113627724998063,0.8094847701711023,0.7461257234119207,0.7554449193573909,0.8095402635497484,0.8142310760148153,0.7934854918872141,0.7661461285635021,0.7900417928072079,0.8177541435973446,0.7944251132756772,0.7530190885402792,0.7044316701174314,0.7253782761921519,0.7821983086427142,0.7968968215751033,0.8175852616658066,0.7687626941535823,0.6726568524960399,0.5835662056673634,0.47112059852866217,0.35800804150153187,0.24494940771010754,0.14583318910615528,0.07181522634070703,0.03997586239733231,0.09075998181310752,0.17674321754677802,0.274216312842241,0.3734858099963141,0.4473431246176327,0.5155505401924101,0.6108859312994159,0.6950551513200995,0.7514286941668722,0.8048670221130285,0.8508709409383552,0.82224961534539,0.7983501247083487,0.8370013923822848,0.8888274841421087,0.8992440113956368,0.9183764673985761,0.9128443003004572,0.8701450110130562,0.9081987446501341,0.907575577815285,0.923395648263762,0.9595860982204938,0.9685504525588247,0.9895968642750494,1.0,0.9488839056154648,0.9334134342566731,0.905309049720942,0.8362876942446364,0.8560377367864325,0.8381660841075984,0.8298047369296331,0.8299847986651878,0.8479135805138238,0.8648868914655399,0.886334977526551,0.8681274117133952,0.8493881618022066,0.8301653630899661,0.8432734270435942,0.8409282028851921,0.8483194912511083,0.8358730482692911,0.8292530607264581,0.8004109566378279,0.7635156776472618,0.7846310219940467,0.7951043526272388,0.7747971165252894,0.7206937848390389,0.6970806198665622,0.7469198247458859,0.7680153861327463,0.7764326654713871,0.8236674777868771,0.7597533163355061,0.6748795168436414,0.5835559122635523,0.4852771502089075,0.3734866117302129,0.28639381756402926,0.18299325065809846,0.10348888795281574,0.07927677750110274,0.141573124236964,0.24948551809226593,0.3363855639262727,0.44165951788032487,0.5310597070312886,0.6020510233893654,0.6710901476101965,0.7459086703674487,0.7931788618405555,0.809725437456918,0.7984769176562798,0.8368198556126556,0.8329522764008201,0.7983045673973219,0.8442191753717898,0.8459475667220104,0.8556869549922475,0.8643987694933299,0.874883706232775,0.8984755631907557,0.9052479519348893,0.9172739993161496,0.9112214345625533,0.957946021850387,0.9446756070292412,0.9335874329838578,0.9314566714979966,0.8926746891776167,0.8599783162192409,0.8252035343116093,0.8089350576969787,0.8070382907472098,0.7978053563877125,0.8259421131877307,0.8448443885831223,0.8072480224281398,0.789072502973978,0.7631127424689694,0.7975607279723738,0.7983422529423878,0.7952028436880836,0.7952005284634076,0.7952005284634076,0.7952029730018983,0.7986632801990448,0.8246694853634953,0.7989635605540384,0.7891923188877277,0.7624549803192107,0.7757609969981365,0.809130904643732,0.8053104755322078,0.809589035930304,0.7588687867276933,0.674640500285415,0.5733228728728132,0.487889109255061,0.3838945857129872,0.2985994806946044,0.18858280515010506,0.09668411315297121,0.02605663665645075,0.02325562894466593,0.08213319010533127,0.18306803817050898,0.2961622365350518,0.40865187637249534,0.49398960865990293,0.5526707777442814,0.6362874230614208,0.712456424339508,0.7716889983405055,0.7949600005569364,0.7980852490140844,0.8178442094695342,0.8105644267889183,0.8296066587499933,0.8400437899744873,0.8764477980772849,0.8986775158935671,0.8922080074747516,0.8392112729041337,0.8477821081476558,0.9149592230834172,0.9606159257461959,0.9401190289151593,0.9335450594515597,0.9334220172058103,0.9177980851552769,0.9223629295930857
0,1,2,3,4,5,6,7,8,9,10,11,12,13,14,15,16,17,18,19,20,21,22,23,24,25,26,27,28,29,30,31,32,33,34,35,36,37,38,39,40,41,42,43,44,45,46,47,48,49,50,51,52,53,54,55,56,57,58,59,60,61,62,63,64,65,66,67,68,69,70,71,72,73,74,75,76,77,78,79,80,81,82,83,84,85,86,87,88,89,90,91,92,93,94,95,96,97,98,99,100,101,102,103,104,105,106,107,108,109,110,111,112,113,114,115,116,117,118,119,120,121,122,123,124,125,126,127,128,129,130,131,132,133,134,135,136,137,138,139,140,141,142,143,144,145,146,147,148,149,150,151,152,153,154,155,156,157,158,159,160,161,162,163,164,165,166,167,168,169,170,171,172,173,174,175,176,177,178,179,180,181,182,183,184,185,186,187,188,189,190,191,192,193,194,195,196,197,198,199,200,201,202,203,204,205,206,207,208,209,210,211,212,213,214,215,216,217,218,219,220,221,222,223,224,225,226,227,228,229,230,231,232,233,234,235,236,237,238,239,240,241,242,243,244,245,246,247,248,249,250,251,252,253,254
0.8207344255480447,0.821819796441325,0.8047449180543089,0.7776120218178724,0.7960801401590873,0.8058732001168658,0.7958874833512395,0.7995507196720779,0.7906069879157065,0.7657314581680912,0.7556222517578433,0.7559119284378788,0.7707185741437774,0.7867127158219462,0.7781080872978712,0.7792275732548184,0.7448923535826117,0.7455176719940293,0.7554291385706482,0.7546059971776091,0.740625946170808,0.7511676681206181,0.7849921083823523,0.7770648862764769,0.7824614683196147,0.7547145640205684,0.6899636597003194,0.6322048306102039,0.5765776520795338,0.5113663144680092,0.45774462942183547,0.3978344213450251,0.33247886712420405,0.27847750997974163,0.21897131786001323,0.15724047041139633,0.11489680184273254,0.1130454337410316,0.1547764546344843,0.21900224226682674,0.2736674173220006,0.33239537080819614,0.39067393644769854,0.44581430988702975,0.5112802283781739,0.5769172595877881,0.6420496025651112,0.6949708100388357,0.7557838270939894,0.819611693208715,0.869726102952292,0.9193417057473683,0.9710156420192,0.9953277860849248,0.9775944956757803,0.9295517666875308,0.8857032285766575,0.8474466664021065,0.8163791268740765,0.7859729979457182,0.7759159646218023,0.8022656344277075,0.7915468960435095,0.774191526189294,0.7678453142535493,0.7382669613913619,0.7008547397706972,0.668713040004207,0.6484086482199909,0.6160449553039893,0.580069088739811,0.5496997794805512,0.5260410371526563,0.5067677913920918,0.5289323518679208,0.5513828819019384,0.5731616305888094,0.6016704623706612,0.630482087849459,0.6618827746618008,0.6784054562295752,0.6897362643877365,0.7028673282755271,0.7176697878504736,0.7217643303956667,0.736102546419962,0.7323353213582364,0.7290623346342326,0.7219350134326881,0.7201837222855714,0.7389954903765719,0.7528963060858946,0.7394891313597314,0.7482152372621411,0.7326530651884662,0.7263510796879915,0.7507597349300332,0.7434283447319667,0.7213490594204752,0.725319950941512,0.7206215122316828,0.7291316125656717,0.7262803023992266,0.7191929599457354,0.7070828956966677,0.699473288643782,0.6849138515520132,0.6891533417992735,0.7239301852254272,0.7334204886393962,0.7240217855090525,0.7395305426864454,0.7541666649924585,0.7355384753036533,0.6738610649178831,0.6202440756203957,0.5603338675435849,0.49474367665918173,0.4360155419233229,0.3812971885235221,0.315883894793322,0.2566711744806023,0.20238093767823662,0.14051353786564347,0.08867623457285889,0.02860809866243308,0.0,0.021043720186747272,0.07384760151645686,0.13215053265751964,0.19775188512448105,0.2633889163340961,0.32902263018134104,0.3920621192191245,0.4434400825918905,0.5078562249622545,0.5673654143327367,0.6213667714772004,0.6867223256980206,0.7466325337748314,0.8002067514711841,0.8586679826454717,0.9132998017099774,0.9702673966791209,1.0,0.9737543300990632,0.9317299366762835,0.8865518500222276,0.8326512272382711,0.7938117764288348,0.7666392794172423,0.7556705302407627,0.7555179667041836,0.7462537086824299,0.7222392475851382,0.7144317875434618,0.6883745910548309,0.6618628385697511,0.6233606067821809,0.5873878555475898,0.5530940064843883,0.5141061977125045,0.4884819264625455,0.462455052503993,0.4382165980763779,0.4553458464725857,0.480616552057584,0.5175754632219345,0.5579965857520519,0.5830788593231984,0.6291024379524588,0.6635980005149125,0.686118291996435,0.7144760411074489,0.7221443899217275,0.7364630860458949,0.7491771195248216,0.7788105266595409,0.7790026613181804,0.7716523407210434,0.7557314358688969,0.7401936683596935,0.7497369108228233,0.7470411574185145,0.7313276779419566,0.7321872739579982,0.7482099133725635,0.7393084980894873,0.7510242773428466,0.7272984663120821,0.7202745247971767,0.7255324538373995,0.7238520411905047,0.7369709585188651,0.7296182518502654,0.7328699754973513,0.7358980970913067,0.726477361414041,0.7305898533298762,0.7059636268355369,0.7098153373417406,0.7075513606961903,0.7293004987500846,0.73752021167354,0.744529594022433,0.7503116796975347,0.7227248613684942,0.7126573157048814,0.660541612366603,0.6009361336776862,0.5470710162220009,0.4849261288037243,0.43335917203308316,0.3685353190117562,0.30303785058734967,0.2474405570491025,0.1901394544659074,0.14376196713600908,0.10429342966757105,0.07388078567418788,0.09816198860138492,0.15210486483733687,0.20609040896976882,0.2714459631905899,0.33135617126740025,0.384977644968969,0.4495741665783637,0.5014536427420246,0.5635020239235242,0.6226587395801348,0.676992309810601,0.7422025690229006,0.7969735243729548,0.8540766885535285,0.9043275446242967,0.9511838142855935,0.9622376550036744,0.9205822635074181,0.8750324544660355,0.8422696450013651,0.816922867220645,0.7851613546716831,0.758574230041472,0.7512103260326977,0.7425523745182905,0.7551372040677711,0.7609165859127391,0.7521997647973091,0.7154588289384636,0.6878352706488493,0.6616967351711684,0.6364523169968139,0.6023571478106415,0.5739020473636485,0.5584736400288395
0,1,2,3,4,5,6,7,8,9,10,11,12,13,14,15,16,17,18,19,20,21,22,23,24,25,26,27,28,29,30,31,32,33,34,35,36,37,38,39,40,41,42,43,44,45,46,47,48,49,50,51,52,53,54,55,56,57,58,59,60,61,62,63,64,65,66,67,68,69,70,71,72,73,74,75,76,77,78,79,80,81,82,83,84,85,86,87,88,89,90,91,92,93,94,95,96,97,98,99,100,101,102,103,104,105,106,107,108,109,110,111,112,113,114,115,116,117,118,119,120,121,122,123,124,125,126,127,128,129,130,131,132,133,134,135,136,137,138,139,140,141,142,143,144,145,146,147,148,149,150,151,152,153,154,155,156,157,158,159,160,161,162,163,164,165,166,167,168,169,170,171,172,173,174,175,176,177,178,179,180,181,182,183,184,185,186,187,188,189,190,191,192,193,194,195,196,197,198,199,200,201,202,203,204,205,206,207,208,209,210,211,212,213,214,215,216,217,218,219,220,221,222,223,224,225,226,227,228,229,230,231,232,233,234,235,236,237,238,239,240,241,242,243,244,245,246,247,248,249,250,251,252,253,254
0.8207344255480447,0.821819796441325,0.8047449180543089,0.7776120218178724,0.7960801401590873,0.8058732001168658,0.7958874833512395,0.7995507196720779,0.7906069879157065,0.7657314581680912,0.7556222517578433,0.7559119284378788,0.7707185741437774,0.7867127158219462,0.7781080872978712,0.7792275732548184,0.7448923535826117,0.7455176719940293,0.7554291385706482,0.7546059971776091,0.740625946170808,0.7511676681206181,0.7849921083823523,0.7770648862764769,0.7824614683196147,0.7547145640205684,0.6899636597003194,0.6322048306102039,0.5765776520795338,0.5113663144680092,0.45774462942183547,0.3978344213450251,0.33247886712420405,0.27847750997974163,0.21897131786001323,0.15724047041139633,0.11489680184273254,0.1130454337410316,0.1547764546344843,0.21900224226682674,0.2736674173220006,0.33239537080819614,0.39067393644769854,0.44581430988702975,0.5112802283781739,0.5769172595877881,0.6420496025651112,0.6949708100388357,0.7557838270939894,0.819611693208715,0.869726102952292,0.9193417057473683,0.9710156420192,0.9953277860849248,0.9775944956757803,0.9295517666875308,0.8857032285766575,0.8474466664021065,0.8163791268740765,0.7859729979457182,0.7759159646218023,0.8022656344277075,0.7915468960435095,0.774191526189294,0.7678453142535493,0.7382669613913619,0.7008547397706972,0.668713040004207,0.6484086482199909,0.6160449553039893,0.580069088739811,0.5496997794805512,0.5260410371526563,0.5067677913920918,0.5289323518679208,0.5513828819019384,0.5731616305888094,0.6016704623706612,0.630482087849459,0.6618827746618008,0.6784054562295752,0.6897362643877365,0.7028673282755271,0.7176697878504736,0.7217643303956667,0.736102546419962,0.7323353213582364,0.7290623346342326,0.7219350134326881,0.7201837222855714,0.7389954903765719,0.7528963060858946,0.7394891313597314,0.7482152372621411,0.7326530651884662,0.7263510796879915,0.7507597349300332,0.7434283447319667,0.7213490594204752,0.725319950941512,0.7206215122316828,0.7291316125656717,0.7262803023992266,0.7191929599457354,0.7070828956966677,0.699473288643782,0.6849138515520132,0.6891533417992735,0.7239301852254272,0.7334204886393962,0.7240217855090525,0.7395305426864454,0.7541666649924585,0.7355384753036533,0.6738610649178831,0.6202440756203957,0.5603338675435849,0.49474367665918173,0.4360155419233229,0.3812971885235221,0.315883894793322,0.2566711744806023,0.20238093767823662,0.14051353786564347,0.08867623457285889,0.02860809866243308,0.0,0.021043720186747272,0.07384760151645686,0.13215053265751964,0.19775188512448105,0.2633889163340961,0.32902263018134104,0.3920621192191245,0.4434400825918905,0.5078562249622545,0.5673654143327367,0.6213667714772004,0.6867223256980206,0.7466325337748314,0.8002067514711841,0.8586679826454717,0.9132998017099774,0.9702673966791209,1.0,0.9737543300990632,0.9317299366762835,0.8865518500222276,0.8326512272382711,0.7938117764288348,0.7666392794172423,0.7556705302407627,0.7555179667041836,0.7462537086824299,0.7222392475851382,0.7144317875434618,0.6883745910548309,0.6618628385697511,0.6233606067821809,0.5873878555475898,0.5530940064843883,0.5141061977125045,0.4884819264625455,0.462455052503993,0.4382165980763779,0.4553458464725857,0.480616552057584,0.5175754632219345,0.5579965857520519,0.5830788593231984,0.6291024379524588,0.6635980005149125,0.686118291996435,0.7144760411074489,0.7221443899217275,0.7364630860458949,0.7491771195248216,0.7788105266595409,0.7790026613181804,0.7716523407210434,0.7557314358688969,0.7401936683596935,0.7497369108228233,0.7470411574185145,0.7313276779419566,0.7321872739579982,0.7482099133725635,0.7393084980894873,0.7510242773428466,0.7272984663120821,0.7202745247971767,0.7255324538373995,0.7238520411905047,0.7369709585188651,0.7296182518502654,0.7328699754973513,0.7358980970913067,0.726477361414041,0.7305898533298762,0.7059636268355369,0.7098153373417406,0.7075513606961903,0.7293004987500846,0.73752021167354,0.744529594022433,0.7503116796975347,0.7227248613684942,0.7126573157048814,0.660541612366603,0.6009361336776862,0.5470710162220009,0.4849261288037243,0.43335917203308316,0.3685353190117562,0.30303785058734967,0.2474405570491025,0.1901394544659074,0.14376196713600908,0.10429342966757105,0.07388078567418788,0.09816198860138492,0.15210486483733687,0.20609040896976882,0.2714459631905899,0.33135617126740025,0.384977644968969,0.4495741665783637,0.5014536427420246,0.5635020239235242,0.6226587395801348,0.676992309810601,0.7422025690229006,0.7969735243729548,0.8540766885535285,0.9043275446242967,0.9511838142855935,0.9622376550036744,0.9205822635074181,0.8750324544660355,0.8422696450013651,0.816922867220645,0.7851613546716831,0.758574230041472,0.7512103260326977,0.7425523745182905,0.7551372040677711,0.7609165859127391,0.7521997647973091,0.7154588289384636,0.6878352706488493,0.6616967351711684,0.6364523169968139,0.6023571478106415,0.5739020473636485,0.5584736400288395
0,1,2,3,4,5,6,7,8,9,10,11,12,13,14,15,16,17,18,19,20,21,22,23,24,25,26,27,28,29,30,31,32,33,34,35,36,37,38,39,40,41,42,43,44,45,46,47,48,49,50,51,52,53,54,55,56,57,58,59,60,61,62,63,64,65,66,67,68,69,70,71,72,73,74,75,76,77,78,79,80,81,82,83,84,85,86,87,88,89,90,91,92,93,94,95,96,97,98,99,100,101,102,103,104,105,106,107,108,109,110,111,112,113,114,115,116,117,118,119,120,121,122,123,124,125,126,127,128,129,130,131,132,133,134,135,136,137,138,139,140,141,142,143,144,145,146,147,148,149,150,151,152,153,154,155,156,157,158,159,160,161,162,163,164,165,166,167,168,169,170,171,172,173,174,175,176,177,178,179,180,181,182,183,184,185,186,187,188,189,190,191,192,193,194,195,196,197,198,199,200,201,202,203,204,205,206,207,208,209,210,211,212,213,214,215,216,217,218,219,220,221,222,223,224,225,226,227,228,229,230,231,232,233,234,235,236,237,238,239,240,241,242,243,244,245,246,247,248,249,250,251,252,253,254
0.4900494330600811,0.5102626369455443,0.5663072879209885,0.6359940137080917,0.7228110394912974,0.81652922286679,0.8920946096679456,0.9642382236996623,1.0,0.9689053887004411,0.8892181527997804,0.8151465482759841,0.7307072029508737,0.6368166753987188,0.5491882116906703,0.48871454610840814,0.49875681631241076,0.5277566779973553,0.5289696683123646,0.52896972734945,0.5290346889263828,0.541668368748911,0.5738486307035711,0.6125110488326397,0.6140263638957739,0.5675566859601,0.5430371716502105,0.5047390001081906,0.49922737355757274,0.4897265497736303,0.4699006474521594,0.4717683091992386,0.4960966494565131,0.48194628176663024,0.44220541648261324,0.40397514712986826,0.3498172399872166,0.3053628765466616,0.24441348005308328,0.18666349158527407,0.13775152398783508,0.08799529868836675,0.09991909674490884,0.13914474878660688,0.20117741595349514,0.2527184664483819,0.2881962768091615,0.3249633621054562,0.35631772121264493,0.39756546025160855,0.42916613223523736,0.4397929343681293,0.4399275999247978,0.4539197652401121,0.46935085559514267,0.4695468044394131,0.4722236660208887,0.5203552789634225,0.5828300258665484,0.6589038429025882,0.7372560197063436,0.8167680009918747,0.8919016925849306,0.9411972690517514,0.9209463379761287,0.8363010254384111,0.7661574390817201,0.6759527125061622,0.5821085628498031,0.501476952616537,0.42646705477513436,0.408573567275198,0.45279200136794273,0.4761598088587462,0.4871603171157046,0.4697179966201279,0.4695468044394131,0.46964274994244803,0.48504095486000587,0.5234117792399982,0.5289093807716787,0.5153923651447823,0.47601617771150906,0.46955212685978776,0.46955223585133155,0.4759405271234316,0.49775560384426587,0.4769694223409848,0.45431777857958533,0.41551658495369104,0.3906081812688864,0.34459581826901786,0.29703988105652357,0.22554854422623105,0.1687386085412177,0.1205912361340502,0.04953565792426051,0.0,0.02604943271748006,0.0730854775400065,0.13202738067755782,0.18169160970197584,0.23755868278308245,0.2903747423729115,0.3360262712428064,0.36839698488241,0.39217611527652085,0.44741134835610286,0.4737123157680596,0.49702169996772216,0.4813140587529192,0.49505597284447944,0.4983769334216541,0.48644652282661927,0.49895276879780237,0.5194690351766997,0.5887931059037843,0.6683241918974412,0.7437260169809345,0.8264887995707468,0.9085610792648682,0.9703426685152348,0.9995784307381843,0.9532540930613731,0.8925248042758103,0.8414379318124983,0.7695664097669992,0.7160486118877705,0.6480511057837548,0.5580387003229124,0.4648263361713951,0.42133252789803066,0.4504150675560643,0.46917760280841936,0.4695468044394131,0.46955408870757065,0.47716341858397104,0.4990546184773219,0.5195909055040007,0.5412578732966011,0.555931496470726,0.5198233108342292,0.47225406682094206,0.4695474765539318,0.47279937454832144,0.4967941486537173,0.4992559498241329,0.4964634445427363,0.4720768350223983,0.4567709077258808,0.40219150357290623,0.3548399167227414,0.31542990794450443,0.24706317283158175,0.19821424653044595,0.1294986916143337,0.08548932352642069,0.10787929449026823,0.1543669117760773,0.19667285395201883,0.23492538626206105,0.29612733436756056,0.34727136375908696,0.3711907994379491,0.3929027866101986,0.4099630052288452,0.42593659169905873,0.44725596270766665,0.46458067066862263,0.4412516394459338,0.4441909132341806,0.4676313092299704,0.47741035916061314,0.5424731258297033,0.6144376179616522,0.6974144453316269,0.7528155581181428,0.8074990508688806,0.8753334995078959,0.930745013417134,0.9402731376737723,0.8739763478805012,0.7802354788308143,0.6866749220214832,0.6107612923927883,0.5281721957758974,0.43861067349236116,0.4201796865720677,0.45995811998351055,0.4695192247430988,0.4752211792054677,0.4979870456254698,0.49925815236157334,0.5017675098214438,0.5261394734144362,0.5286584839688162,0.5113413521410051,0.4992692622003574,0.4885426518668572,0.4884818857232487,0.497859557613582,0.47589891220235625,0.491735944809351,0.4775227988034709,0.4390820638105408,0.3991346335038193,0.3563177212126458,0.3246944647194061,0.27128838256401,0.22311451243859626,0.17866737172274227,0.11924841733173341,0.1047963182597984,0.1376067173900477,0.18324546142334608,0.2178311765941361,0.2739637800977146,0.3172274040487686,0.3494566322838599,0.3835776289784141,0.42037278266100664,0.4311689368257401,0.42654124254750236,0.44728221153090075,0.4645519180818516,0.4412429099221429,0.4398353429843942,0.43995877861410726,0.4618216379970539,0.5245068386477874,0.6117724590114895,0.6811007201581596,0.7601567047085984,0.8231140067855884,0.8930861525442246,0.9117757513888058,0.8708215455714949,0.78505487515294,0.7060912707675628,0.6266826718775329,0.5333212558207103,0.46427516061080976,0.47391192744925537,0.4987423927333543,0.5101407267466866,0.5101593679834444,0.4793970963324963,0.5046822256897912,0.5281944587967313,0.531504021290572,0.5593784364174041,0.5840742214395371,0.554578984533304,0.5267893651274296,0.5183181832659836
0,1,2,3,4,5,6,7,8,9,10,11,12,13,14,15,16,17,18,19,20,21,22,23,24,25,26,27,28,29,30,31,32,33,34,35,36,37,38,39,40,41,42,43,44,45,46,47,48,49,50,51,52,53,54,55,56,57,58,59,60,61,62,63,64,65,66,67,68,69,70,71,72,73,74,75,76,77,78,79,80,81,82,83,84,85,86,87,88,89,90,91,92,93,94,95,96,97,98,99,100,101,102,103,104,105,106,107,108,109,110,111,112,113,114,115,116,117,118,119,120,121,122,123,124,125,126,127,128,129,130,131,132,133,134,135,136,137,138,139,140,141,142,143,144,145,146,147,148,149,150,151,152,153,154,155,156,157,158,159,160,161,162,163,164,165,166,167,168,169,170,171,172,173,174,175,176,177,178,179,180,181,182,183,184,185,186,187,188,189,190,191,192,193,194,195,196,197,198,199,200,201,202,203,204,205,206,207,208,209,210,211,212,213,214,215,216,217,218,219,220,221,222,223,224,225,226,227,228,229,230,231,232,233,234,235,236,237,238,239,240,241,242,243,244,245,246,247,248,249,250,251,252,253,254
0.4900494330600811,0.5102626369455443,0.5663072879209885,0.6359940137080917,0.7228110394912974,0.81652922286679,0.8920946096679456,0.9642382236996623,1.0,0.9689053887004411,0.8892181527997804,0.8151465482759841,0.7307072029508737,0.6368166753987188,0.5491882116906703,0.48871454610840814,0.49875681631241076,0.5277566779973553,0.5289696683123646,0.52896972734945,0.5290346889263828,0.541668368748911,0.5738486307035711,0.6125110488326397,0.6140263638957739,0.5675566859601,0.5430371716502105,0.5047390001081906,0.49922737355757274,0.4897265497736303,0.4699006474521594,0.4717683091992386,0.4960966494565131,0.48194628176663024,0.44220541648261324,0.40397514712986826,0.3498172399872166,0.3053628765466616,0.24441348005308328,0.18666349158527407,0.13775152398783508,0.08799529868836675,0.09991909674490884,0.13914474878660688,0.20117741595349514,0.2527184664483819,0.2881962768091615,0.3249633621054562,0.35631772121264493,0.39756546025160855,0.42916613223523736,0.4397929343681293,0.4399275999247978,0.4539197652401121,0.46935085559514267,0.4695468044394131,0.4722236660208887,0.5203552789634225,0.5828300258665484,0.6589038429025882,0.7372560197063436,0.8167680009918747,0.8919016925849306,0.9411972690517514,0.9209463379761287,0.8363010254384111,0.7661574390817201,0.6759527125061622,0.5821085628498031,0.501476952616537,0.42646705477513436,0.408573567275198,0.45279200136794273,0.4761598088587462,0.4871603171157046,0.4697179966201279,0.4695468044394131,0.46964274994244803,0.48504095486000587,0.5234117792399982,0.5289093807716787,0.5153923651447823,0.47601617771150906,0.46955212685978776,0.46955223585133155,0.4759405271234316,0.49775560384426587,0.4769694223409848,0.45431777857958533,0.41551658495369104,0.3906081812688864,0.34459581826901786,0.29703988105652357,0.22554854422623105,0.1687386085412177,0.1205912361340502,0.04953565792426051,0.0,0.02604943271748006,0.0730854775400065,0.13202738067755782,0.18169160970197584,0.23755868278308245,0.2903747423729115,0.3360262712428064,0.36839698488241,0.39217611527652085,0.44741134835610286,0.4737123157680596,0.49702169996772216,0.4813140587529192,0.49505597284447944,0.4983769334216541,0.48644652282661927,0.49895276879780237,0.5194690351766997,0.5887931059037843,0.6683241918974412,0.7437260169809345,0.8264887995707468,0.9085610792648682,0.9703426685152348,0.9995784307381843,0.9532540930613731,0.8925248042758103,0.8414379318124983,0.7695664097669992,0.7160486118877705,0.6480511057837548,0.5580387003229124,0.4648263361713951,0.42133252789803066,0.4504150675560643,0.46917760280841936,0.4695468044394131,0.46955408870757065,0.47716341858397104,0.4990546184773219,0.5195909055040007,0.5412578732966011,0.555931496470726,0.5198233108342292,0.47225406682094206,0.4695474765539318,0.47279937454832144,0.4967941486537173,0.4992559498241329,0.4964634445427363,0.4720768350223983,0.4567709077258808,0.40219150357290623,0.3548399167227414,0.31542990794450443,0.24706317283158175,0.19821424653044595,0.1294986916143337,0.08548932352642069,0.10787929449026823,0.1543669117760773,0.19667285395201883,0.23492538626206105,0.29612733436756056,0.34727136375908696,0.3711907994379491,0.3929027866101986,0.4099630052288452,0.42593659169905873,0.44725596270766665,0.46458067066862263,0.4412516394459338,0.4441909132341806,0.4676313092299704,0.47741035916061314,0.5424731258297033,0.6144376179616522,0.6974144453316269,0.7528155581181428,0.8074990508688806,0.8753334995078959,0.930745013417134,0.9402731376737723,0.8739763478805012,0.7802354788308143,0.6866749220214832,0.6107612923927883,0.5281721957758974,0.43861067349236116,0.4201796865720677,0.45995811998351055,0.4695192247430988,0.4752211792054677,0.4979870456254698,0.49925815236157334,0.5017675098214438,0.5261394734144362,0.5286584839688162,0.5113413521410051,0.4992692622003574,0.4885426518668572,0.4884818857232487,0.497859557613582,0.47589891220235625,0.491735944809351,0.4775227988034709,0.4390820638105408,0.3991346335038193,0.3563177212126458,0.3246944647194061,0.27128838256401,0.22311451243859626,0.17866737172274227,0.11924841733173341,0.1047963182597984,0.1376067173900477,0.18324546142334608,0.2178311765941361,0.2739637800977146,0.3172274040487686,0.3494566322838599,0.3835776289784141,0.42037278266100664,0.4311689368257401,0.42654124254750236,0.44728221153090075,0.4645519180818516,0.4412429099221429,0.4398353429843942,0.43995877861410726,0.4618216379970539,0.5245068386477874,0.6117724590114895,0.6811007201581596,0.7601567047085984,0.8231140067855884,0.8930861525442246,0.9117757513888058,0.8708215455714949,0.78505487515294,0.7060912707675628,0.6266826718775329,0.5333212558207103,0.46427516061080976,0.47391192744925537,0.4987423927333543,0.5101407267466866,0.5101593679834444,0.4793970963324963,0.5046822256897912,0.5281944587967313,0.531504021290572,0.5593784364174041,0.5840742214395371,0.554578984533304,0.5267893651274296,0.5183181832659836
0,1,2,3,4,5,6,7,8,9,10,11,12,13,14,15,16,17,18,19,20,21,22,23,24,25,26,27,28,29,30,31,32,33,34,35,36,37,38,39,40,41,42,43,44,45,46,47,48,49,50,51,52,53,54,55,56,57,58,59,60,61,62,63,64,65,66,67,68,69,70,71,72,73,74,75,76,77,78,79,80,81,82,83,84,85,86,87,88,89,90,91,92,93,94,95,96,97,98,99,100,101,102,103,104,105,106,107,108,109,110,111,112,113,114,115,116,117,118,119,120,121,122,123,124,125,126,127,128,129,130,131,132,133,134,135,136,137,138,139,140,141,142,143,144,145,146,147,148,149,150,151,152,153,154,155,156,157,158,159,160,161,162,163,164,165,166,167,168,169,170,171,172,173,174,175,176,177,178,179,180,181,182,183,184,185,186,187,188,189,190,191,192,193,194,195,196,197,198,199,200,201,202,203,204,205,206,207,208,209,210,211,212,213,214,215,216,217,218,219,220,221,222,223,224,225,226,227,228,229,230,231,232,233,234,235,236,237,238,239,240,241,242,243,244,245,246,247,248,249,250,251,252,253,254
0.6954395860586451,0.7200000008150456,0.7128231630725774,0.7176594008879862,0.7151449304059261,0.7105032546856056,0.7391431341122314,0.7390852971261008,0.7161844013152479,0.7235878236408322,0.7087709825472461,0.7211055149133334,0.7197675950240248,0.7257932995518979,0.7320729980180158,0.7395767747746103,0.7590238935363876,0.7691594442160099,0.7386548766698553,0.7485094996267434,0.7560621514652062,0.7564428440926281,0.772335726324703,0.8028079873942753,0.8609298991631982,0.9225389528394063,0.9968541535843101,0.9905990282998975,0.9146440916825447,0.848956929931393,0.7798027445203233,0.7005383225263544,0.6226988463279413,0.5629312948828158,0.4865813711340392,0.40725818856275486,0.3279331281794611,0.25197435557807424,0.19182754303727245,0.1368026398909259,0.15611978891567713,0.22121970583745876,0.2998537484423216,0.361763514508195,0.43506001671498495,0.5138632986757234,0.5760734208060012,0.6295316347312454,0.6382924104887171,0.6512705911327501,0.6204362892602813,0.6186844128431703,0.6354879740604282,0.6359561855450075,0.6359562462785702,0.6364809432980896,0.6536860353714404,0.6742200125466309,0.7196821645125286,0.7523517348023208,0.7917297866580131,0.831438995908703,0.8773646352068885,0.9193203685505771,0.950028613534291,0.9574776434850913,0.9196492128021654,0.8731485493009461,0.8203390544836213,0.7769167987787573,0.7532999283846062,0.7213356531550117,0.6910823519799787,0.6983354703261013,0.6847470033804344,0.6982820651445523,0.6847418006908317,0.658350472874845,0.6252543064449276,0.6215680434677164,0.635809213949007,0.6430277705257859,0.6533306809262469,0.6377430610044366,0.6623050589243911,0.6776717053408796,0.660576681968239,0.6599799267300903,0.65863123672053,0.639904888747648,0.656415878324232,0.6802377849414585,0.6700273343793244,0.6571167363291828,0.6378811423336885,0.6444565692468491,0.6599266904567727,0.6729290068534235,0.6784901676982797,0.660628585397057,0.6654242472949927,0.6819891044125366,0.6635667288244589,0.660006359868798,0.6671267097383295,0.7032358557537828,0.754149828353011,0.8182652340743792,0.8782423122390131,0.9544694395545803,0.9999999999999996,0.9369836638790656,0.864244029718805,0.8018742794297333,0.7230642342113498,0.6498256046203377,0.5878647291963315,0.5091005642822597,0.429774695783665,0.35044880304377823,0.2719565017871486,0.21059647826283134,0.1364894961424814,0.05786415249407284,0.0021225023054713965,0.0,0.06444363879433235,0.1252547904248864,0.2035696604862367,0.2789703680002473,0.3393524520745057,0.4170327515708041,0.47948735038868273,0.5503899497494236,0.5821633224781522,0.5647722803832456,0.5651410489924396,0.5901514229191429,0.598295106139449,0.5879758326049354,0.5879084086300956,0.5879118169413924,0.5913796260195916,0.6163142424803123,0.656886896347237,0.6933700467513861,0.7278315230950869,0.768215612765287,0.8181679122273069,0.851385893573084,0.9010029503859234,0.9387525852310179,0.9243053358582869,0.8695279234552777,0.839400096720992,0.7996015802397309,0.7560869806902817,0.7193084220706059,0.6868844587679104,0.6813795220572207,0.6517136339713581,0.6361715484875097,0.6359561855450075,0.6359874184413106,0.6439029078457925,0.676816059233607,0.6853817964461233,0.7040281848209742,0.6950494261882176,0.7067020004429487,0.7300281546790259,0.7131819631311958,0.7254064632828676,0.7150926547313885,0.7029210545976086,0.6924015008413886,0.6863606632819135,0.6898572510493071,0.6875120732189797,0.6842033260213465,0.697450117238879,0.7077677655556132,0.6924373696946229,0.6668770943042173,0.6477446356117698,0.6367402701505336,0.6600801805361778,0.6832185815772527,0.6936409004085653,0.7323817057243791,0.7955707310190445,0.8554122880574577,0.9278202280225885,0.9525852806122068,0.8928041112099687,0.8315036761749313,0.7528254269683652,0.6747165242010844,0.6145373435370023,0.5388678632113311,0.45954547520545397,0.38021998700844284,0.3033907031529295,0.24361056015046234,0.1864234219887968,0.20161852831853366,0.2650381345987807,0.3368556234911608,0.3998393059482992,0.47862839364278464,0.5442318664855184,0.601277854240847,0.6120926645272555,0.6241435396479762,0.6166345256936858,0.621662676860407,0.6206310996422539,0.6399428934282456,0.6436271569954073,0.6195668878334488,0.637265764242223,0.6560432835515297,0.6399221881327137,0.6620493260309086,0.6922468606248113,0.736729731748472,0.7812533626025413,0.826463143875904,0.8698803673791944,0.9003857584070833,0.9380749642430257,0.971864125828366,0.9556847395140369,0.9074123164411128,0.8674542616283429,0.8342974291194447,0.785357251704331,0.743884129283471,0.7113372055944396,0.7047098908883997,0.6928051496967234,0.70133872519594,0.6845379912081877,0.6840040252787554,0.6840680152400518,0.6944966051701291,0.6977946237735786,0.684747144136332,0.6995248890813115,0.6773104280446578,0.6747874630004107,0.6845925697266835,0.693933803705622,0.6908903096840393,0.6947994126053216
0,1,2,3,4,5,6,7,8,9,10,11,12,13,14,15,16,17,18,19,20,21,22,23,24,25,26,27,28,29,30,31,32,33,34,35,36,37,38,39,40,41,42,43,44,45,46,47,48,49,50,51,52,53,54,55,56,57,58,59,60,61,62,63,64,65,66,67,68,69,70,71,72,73,74,75,76,77,78,79,80,81,82,83,84,85,86,87,88,89,90,91,92,93,94,95,96,97,98,99,100,101,102,103,104,105,106,107,108,109,110,111,112,113,114,115,116,117,118,119,120,121,122,123,124,125,126,127,128,129,130,131,132,133,134,135,136,137,138,139,140,141,142,143,144,145,146,147,148,149,150,151,152,153,154,155,156,157,158,159,160,161,162,163,164,165,166,167,168,169,170,171,172,173,174,175,176,177,178,179,180,181,182,183,184,185,186,187,188,189,190,191,192,193,194,195,196,197,198,199,200,201,202,203,204,205,206,207,208,209,210,211,212,213,214,215,216,217,218,219,220,221,222,223,224,225,226,227,228,229,230,231,232,233,234,235,236,237,238,239,240,241,242,243,244,245,246,247,248,249,250,251,252,253,254
0.8207344255480447,0.821819796441325,0.8047449180543089,0.7776120218178724,0.7960801401590873,0.8058732001168658,0.7958874833512395,0.7995507196720779,0.7906069879157065,0.7657314581680912,0.7556222517578433,0.7559119284378788,0.7707185741437774,0.7867127158219462,0.7781080872978712,0.7792275732548184,0.7448923535826117,0.7455176719940293,0.7554291385706482,0.7546059971776091,0.740625946170808,0.7511676681206181,0.7849921083823523,0.7770648862764769,0.7824614683196147,0.7547145640205684,0.6899636597003194,0.6322048306102039,0.5765776520795338,0.5113663144680092,0.45774462942183547,0.3978344213450251,0.33247886712420405,0.27847750997974163,0.21897131786001323,0.15724047041139633,0.11489680184273254,0.1130454337410316,0.1547764546344843,0.21900224226682674,0.2736674173220006,0.33239537080819614,0.39067393644769854,0.44581430988702975,0.5112802283781739,0.5769172595877881,0.6420496025651112,0.6949708100388357,0.7557838270939894,0.819611693208715,0.869726102952292,0.9193417057473683,0.9710156420192,0.9953277860849248,0.9775944956757803,0.9295517666875308,0.8857032285766575,0.8474466664021065,0.8163791268740765,0.7859729979457182,0.7759159646218023,0.8022656344277075,0.7915468960435095,0.774191526189294,0.7678453142535493,0.7382669613913619,0.7008547397706972,0.668713040004207,0.6484086482199909,0.6160449553039893,0.580069088739811,0.5496997794805512,0.5260410371526563,0.5067677913920918,0.5289323518679208,0.5513828819019384,0.5731616305888094,0.6016704623706612,0.630482087849459,0.6618827746618008,0.6784054562295752,0.6897362643877365,0.7028673282755271,0.7176697878504736,0.7217643303956667,0.736102546419962,0.7323353213582364,0.7290623346342326,0.7219350134326881,0.7201837222855714,0.7389954903765719,0.7528963060858946,0.7394891313597314,0.7482152372621411,0.7326530651884662,0.7263510796879915,0.7507597349300332,0.7434283447319667,0.7213490594204752,0.725319950941512,0.7206215122316828,0.7291316125656717,0.7262803023992266,0.7191929599457354,0.7070828956966677,0.699473288643782,0.6849138515520132,0.6891533417992735,0.7239301852254272,0.7334204886393962,0.7240217855090525,0.7395305426864454,0.7541666649924585,0.7355384753036533,0.6738610649178831,0.6202440756203957,0.5603338675435849,0.49474367665918173,0.4360155419233229,0.3812971885235221,0.315883894793322,0.2566711744806023,0.20238093767823662,0.14051353786564347,0.08867623457285889,0.02860809866243308,0.0,0.021043720186747272,0.07384760151645686,0.13215053265751964,0.19775188512448105,0.2633889163340961,0.32902263018134104,0.3920621192191245,0.4434400825918905,0.5078562249622545,0.5673654143327367,0.6213667714772004,0.6867223256980206,0.7466325337748314,0.8002067514711841,0.8586679826454717,0.9132998017099774,0.9702673966791209,1.0,0.9737543300990632,0.9317299366762835,0.8865518500222276,0.8326512272382711,0.7938117764288348,0.7666392794172423,0.7556705302407627,0.7555179667041836,0.7462537086824299,0.7222392475851382,0.7144317875434618,0.6883745910548309,0.6618628385697511,0.6233606067821809,0.5873878555475898,0.5530940064843883,0.5141061977125045,0.4884819264625455,0.462455052503993,0.4382165980763779,0.4553458464725857,0.480616552057584,0.5175754632219345,0.5579965857520519,0.5830788593231984,0.6291024379524588,0.6635980005149125,0.686118291996435,0.7144760411074489,0.7221443899217275,0.7364630860458949,0.7491771195248216,0.7788105266595409,0.7790026613181804,0.7716523407210434,0.7557314358688969,0.7401936683596935,0.7497369108228233,0.7470411574185145,0.7313276779419566,0.7321872739579982,0.7482099133725635,0.7393084980894873,0.7510242773428466,0.7272984663120821,0.7202745247971767,0.7255324538373995,0.7238520411905047,0.7369709585188651,0.7296182518502654,0.7328699754973513,0.7358980970913067,0.726477361414041,0.7305898533298762,0.7059636268355369,0.7098153373417406,0.7075513606961903,0.7293004987500846,0.73752021167354,0.744529594022433,0.7503116796975347,0.7227248613684942,0.7126573157048814,0.660541612366603,0.6009361336776862,0.5470710162220009,0.4849261288037243,0.43335917203308316,0.3685353190117562,0.30303785058734967,0.2474405570491025,0.1901394544659074,0.14376196713600908,0.10429342966757105,0.07388078567418788,0.09816198860138492,0.15210486483733687,0.20609040896976882,0.2714459631905899,0.33135617126740025,0.384977644968969,0.4495741665783637,0.5014536427420246,0.5635020239235242,0.6226587395801348,0.676992309810601,0.7422025690229006,0.7969735243729548,0.8540766885535285,0.9043275446242967,0.9511838142855935,0.9622376550036744,0.9205822635074181,0.8750324544660355,0.8422696450013651,0.816922867220645,0.7851613546716831,0.758574230041472,0.7512103260326977,0.7425523745182905,0.7551372040677711,0.7609165859127391,0.7521997647973091,0.7154588289384636,0.6878352706488493,0.6616967351711684,0.6364523169968139,0.6023571478106415,0.5739020473636485,0.5584736400288395
0,1,2,3,4,5,6,7,8,9,10,11,12,13,14,15,16,17,18,19,20,21,22,23,24,25,26,27,28,29,30,31,32,33,34,35,36,37,38,39,40,41,42,43,44,45,46,47,48,49,50,51,52,53,54,55,56,57,58,59,60,61,62,63,64,65,66,67,68,69,70,71,72,73,74,75,76,77,78,79,80,81,82,83,84,85,86,87,88,89,90,91,92,93,94,95,96,97,98,99,100,101,102,103,104,105,106,107,108,109,110,111,112,113,114,115,116,117,118,119,120,121,122,123,124,125,126,127,128,129,130,131,132,133,134,135,136,137,138,139,140,141,142,143,144,145,146,147,148,149,150,151,152,153,154,155,156,157,158,159,160,161,162,163,164,165,166,167,168,169,170,171,172,173,174,175,176,177,178,179,180,181,182,183,184,185,186,187,188,189,190,191,192,193,194,195,196,197,198,199,200,201,202,203,204,205,206,207,208,209,210,211,212,213,214,215,216,217,218,219,220,221,222,223,224,225,226,227,228,229,230,231,232,233,234,235,236,237,238,239,240,241,242,243,244,245,246,247,248,249,250,251,252,253,254
0.8207344255480447,0.821819796441325,0.8047449180543089,0.7776120218178724,0.7960801401590873,0.8058732001168658,0.7958874833512395,0.7995507196720779,0.7906069879157065,0.7657314581680912,0.7556222517578433,0.7559119284378788,0.7707185741437774,0.7867127158219462,0.7781080872978712,0.7792275732548184,0.7448923535826117,0.7455176719940293,0.7554291385706482,0.7546059971776091,0.740625946170808,0.7511676681206181,0.7849921083823523,0.7770648862764769,0.7824614683196147,0.7547145640205684,0.6899636597003194,0.6322048306102039,0.5765776520795338,0.5113663144680092,0.45774462942183547,0.3978344213450251,0.33247886712420405,0.27847750997974163,0.21897131786001323,0.15724047041139633,0.11489680184273254,0.1130454337410316,0.1547764546344843,0.21900224226682674,0.2736674173220006,0.33239537080819614,0.39067393644769854,0.44581430988702975,0.5112802283781739,0.5769172595877881,0.6420496025651112,0.6949708100388357,0.7557838270939894,0.819611693208715,0.869726102952292,0.9193417057473683,0.9710156420192,0.9953277860849248,0.9775944956757803,0.9295517666875308,0.8857032285766575,0.8474466664021065,0.8163791268740765,0.7859729979457182,0.7759159646218023,0.8022656344277075,0.7915468960435095,0.774191526189294,0.7678453142535493,0.7382669613913619,0.7008547397706972,0.668713040004207,0.6484086482199909,0.6160449553039893,0.580069088739811,0.5496997794805512,0.5260410371526563,0.5067677913920918,0.5289323518679208,0.5513828819019384,0.5731616305888094,0.6016704623706612,0.630482087849459,0.6618827746618008,0.6784054562295752,0.6897362643877365,0.7028673282755271,0.7176697878504736,0.7217643303956667,0.736102546419962,0.7323353213582364,0.7290623346342326,0.7219350134326881,0.7201837222855714,0.7389954903765719,0.7528963060858946,0.7394891313597314,0.7482152372621411,0.7326530651884662,0.7263510796879915,0.7507597349300332,0.7434283447319667,0.7213490594204752,0.725319950941512,0.7206215122316828,0.7291316125656717,0.7262803023992266,0.7191929599457354,0.7070828956966677,0.699473288643782,0.6849138515520132,0.6891533417992735,0.7239301852254272,0.7334204886393962,0.7240217855090525,0.7395305426864454,0.7541666649924585,0.7355384753036533,0.6738610649178831,0.6202440756203957,0.5603338675435849,0.49474367665918173,0.4360155419233229,0.3812971885235221,0.315883894793322,0.2566711744806023,0.20238093767823662,0.14051353786564347,0.08867623457285889,0.02860809866243308,0.0,0.021043720186747272,0.07384760151645686,0.13215053265751964,0.19775188512448105,0.2633889163340961,0.32902263018134104,0.3920621192191245,0.4434400825918905,0.5078562249622545,0.5673654143327367,0.6213667714772004,0.6867223256980206,0.7466325337748314,0.8002067514711841,0.8586679826454717,0.9132998017099774,0.9702673966791209,1.0,0.9737543300990632,0.9317299366762835,0.8865518500222276,0.8326512272382711,0.7938117764288348,0.7666392794172423,0.7556705302407627,0.7555179667041836,0.7462537086824299,0.7222392475851382,0.7144317875434618,0.6883745910548309,0.6618628385697511,0.6233606067821809,0.5873878555475898,0.5530940064843883,0.5141061977125045,0.4884819264625455,0.462455052503993,0.4382165980763779,0.4553458464725857,0.480616552057584,0.5175754632219345,0.5579965857520519,0.5830788593231984,0.6291024379524588,0.6635980005149125,0.686118291996435,0.7144760411074489,0.7221443899217275,0.7364630860458949,0.7491771195248216,0.7788105266595409,0.7790026613181804,0.7716523407210434,0.7557314358688969,0.7401936683596935,0.7497369108228233,0.7470411574185145,0.7313276779419566,0.7321872739579982,0.7482099133725635,0.7393084980894873,0.7510242773428466,0.7272984663120821,0.7202745247971767,0.7255324538373995,0.7238520411905047,0.7369709585188651,0.7296182518502654,0.7328699754973513,0.7358980970913067,0.726477361414041,0.7305898533298762,0.7059636268355369,0.7098153373417406,0.7075513606961903,0.7293004987500846,0.73752021167354,0.744529594022433,0.7503116796975347,0.7227248613684942,0.7126573157048814,0.660541612366603,0.6009361336776862,0.5470710162220009,0.4849261288037243,0.43335917203308316,0.3685353190117562,0.30303785058734967,0.2474405570491025,0.1901394544659074,0.14376196713600908,0.10429342966757105,0.07388078567418788,0.09816198860138492,0.15210486483733687,0.20609040896976882,0.2714459631905899,0.33135617126740025,0.384977644968969,0.4495741665783637,0.5014536427420246,0.5635020239235242,0.6226587395801348,0.676992309810601,0.7422025690229006,0.7969735243729548,0.8540766885535285,0.9043275446242967,0.9511838142855935,0.9622376550036744,0.9205822635074181,0.8750324544660355,0.8422696450013651,0.816922867220645,0.7851613546716831,0.758574230041472,0.7512103260326977,0.7425523745182905,0.7551372040677711,0.7609165859127391,0.7521997647973091,0.7154588289384636,0.6878352706488493,0.6616967351711684,0.6364523169968139,0.6023571478106415,0.5739020473636485,0.5584736400288395
0,1,2,3,4,5,6,7,8,9,10,11,12,13,14,15,16,17,18,19,20,21,22,23,24,25,26,27,28,29,30,31,32,33,34,35,36,37,38,39,40,41,42,43,44,45,46,47,48,49,50,51,52,53,54,55,56,57,58,59,60,61,62,63,64,65,66,67,68,69,70,71,72,73,74,75,76,77,78,79,80,81,82,83,84,85,86,87,88,89,90,91,92,93,94,95,96,97,98,99,100,101,102,103,104,105,106,107,108,109,110,111,112,113,114,115,116,117,118,119,120,121,122,123,124,125,126,127,128,129,130,131,132,133,134,135,136,137,138,139,140,141,142,143,144,145,146,147,148,149,150,151,152,153,154,155,156,157,158,159,160,161,162,163,164,165,166,167,168,169,170,171,172,173,174,175,176,177,178,179,180,181,182,183,184,185,186,187,188,189,190,191,192,193,194,195,196,197,198,199,200,201,202,203,204,205,206,207,208,209,210,211,212,213,214,215,216,217,218,219,220,221,222,223,224,225,226,227,228,229,230,231,232,233,234,235,236,237,238,239,240,241,242,243,244,245,246,247,248,249,250,251,252,253,254
0.8207344255480447,0.821819796441325,0.8047449180543089,0.7776120218178724,0.7960801401590873,0.8058732001168658,0.7958874833512395,0.7995507196720779,0.7906069879157065,0.7657314581680912,0.7556222517578433,0.7559119284378788,0.7707185741437774,0.7867127158219462,0.7781080872978712,0.7792275732548184,0.7448923535826117,0.7455176719940293,0.7554291385706482,0.7546059971776091,0.740625946170808,0.7511676681206181,0.7849921083823523,0.7770648862764769,0.7824614683196147,0.7547145640205684,0.6899636597003194,0.6322048306102039,0.5765776520795338,0.5113663144680092,0.45774462942183547,0.3978344213450251,0.33247886712420405,0.27847750997974163,0.21897131786001323,0.15724047041139633,0.11489680184273254,0.1130454337410316,0.1547764546344843,0.21900224226682674,0.2736674173220006,0.33239537080819614,0.39067393644769854,0.44581430988702975,0.5112802283781739,0.5769172595877881,0.6420496025651112,0.6949708100388357,0.7557838270939894,0.819611693208715,0.869726102952292,0.9193417057473683,0.9710156420192,0.9953277860849248,0.9775944956757803,0.9295517666875308,0.8857032285766575,0.8474466664021065,0.8163791268740765,0.7859729979457182,0.7759159646218023,0.8022656344277075,0.7915468960435095,0.774191526189294,0.7678453142535493,0.7382669613913619,0.7008547397706972,0.668713040004207,0.6484086482199909,0.6160449553039893,0.580069088739811,0.5496997794805512,0.5260410371526563,0.5067677913920918,0.5289323518679208,0.5513828819019384,0.5731616305888094,0.6016704623706612,0.630482087849459,0.6618827746618008,0.6784054562295752,0.6897362643877365,0.7028673282755271,0.7176697878504736,0.7217643303956667,0.736102546419962,0.7323353213582364,0.7290623346342326,0.7219350134326881,0.7201837222855714,0.7389954903765719,0.7528963060858946,0.7394891313597314,0.7482152372621411,0.7326530651884662,0.7263510796879915,0.7507597349300332,0.7434283447319667,0.7213490594204752,0.725319950941512,0.7206215122316828,0.7291316125656717,0.7262803023992266,0.7191929599457354,0.7070828956966677,0.699473288643782,0.6849138515520132,0.6891533417992735,0.7239301852254272,0.7334204886393962,0.7240217855090525,0.7395305426864454,0.7541666649924585,0.7355384753036533,0.6738610649178831,0.6202440756203957,0.5603338675435849,0.49474367665918173,0.4360155419233229,0.3812971885235221,0.315883894793322,0.2566711744806023,0.20238093767823662,0.14051353786564347,0.08867623457285889,0.02860809866243308,0.0,0.021043720186747272,0.07384760151645686,0.13215053265751964,0.19775188512448105,0.2633889163340961,0.32902263018134104,0.3920621192191245,0.4434400825918905,0.5078562249622545,0.5673654143327367,0.6213667714772004,0.6867223256980206,0.7466325337748314,0.8002067514711841,0.8586679826454717,0.9132998017099774,0.9702673966791209,1.0,0.9737543300990632,0.9317299366762835,0.8865518500222276,0.8326512272382711,0.7938117764288348,0.7666392794172423,0.7556705302407627,0.7555179667041836,0.7462537086824299,0.7222392475851382,0.7144317875434618,0.6883745910548309,0.6618628385697511,0.6233606067821809,0.5873878555475898,0.5530940064843883,0.5141061977125045,0.4884819264625455,0.462455052503993,0.4382165980763779,0.4553458464725857,0.480616552057584,0.5175754632219345,0.5579965857520519,0.5830788593231984,0.6291024379524588,0.6635980005149125,0.686118291996435,0.7144760411074489,0.7221443899217275,0.7364630860458949,0.7491771195248216,0.7788105266595409,0.7790026613181804,0.7716523407210434,0.7557314358688969,0.7401936683596935,0.7497369108228233,0.7470411574185145,0.7313276779419566,0.7321872739579982,0.7482099133725635,0.7393084980894873,0.7510242773428466,0.7272984663120821,0.7202745247971767,0.7255324538373995,0.7238520411905047,0.7369709585188651,0.7296182518502654,0.7328699754973513,0.7358980970913067,0.726477361414041,0.7305898533298762,0.7059636268355369,0.7098153373417406,0.7075513606961903,0.7293004987500846,0.73752021167354,0.744529594022433,0.7503116796975347,0.7227248613684942,0.7126573157048814,0.660541612366603,0.6009361336776862,0.5470710162220009,0.4849261288037243,0.43335917203308316,0.3685353190117562,0.30303785058734967,0.2474405570491025,0.1901394544659074,0.14376196713600908,0.10429342966757105,0.07388078567418788,0.09816198860138492,0.15210486483733687,0.20609040896976882,0.2714459631905899,0.33135617126740025,0.384977644968969,0.4495741665783637,0.5014536427420246,0.5635020239235242,0.6226587395801348,0.676992309810601,0.7422025690229006,0.7969735243729548,0.8540766885535285,0.9043275446242967,0.9511838142855935,0.9622376550036744,0.9205822635074181,0.8750324544660355,0.8422696450013651,0.816922867220645,0.7851613546716831,0.758574230041472,0.7512103260326977,0.7425523745182905,0.7551372040677711,0.7609165859127391,0.7521997647973091,0.7154588289384636,0.6878352706488493,0.6616967351711684,0.6364523169968139,0.6023571478106415,0.5739020473636485,0.5584736400288395
0,1,2,3,4,5,6,7,8,9,10,11,12,13,14,15,16,17,18,19,20,21,22,23,24,25,26,27,28,29,30,31,32,33,34,35,36,37,38,39,40,41,42,43,44,45,46,47,48,49,50,51,52,53,54,55,56,57,58,59,60,61,62,63,64,65,66,67,68,69,70,71,72,73,74,75,76,77,78,79,80,81,82,83,84,85,86,87,88,89,90,91,92,93,94,95,96,97,98,99,100,101,102,103,104,105,106,107,108,109,110,111,112,113,114,115,116,117,118,119,120,121,122,123,124,125,126,127,128,129,130,131,132,133,134,135,136,137,138,139,140,141,142,143,144,145,146,147,148,149,150,151,152,153,154,155,156,157,158,159,160,161,162,163,164,165,166,167,168,169,170,171,172,173,174,175,176,177,178,179,180,181,182,183,184,185,186,187,188,189,190,191,192,193,194,195,196,197,198,199,200,201,202,203,204,205,206,207,208,209,210,211,212,213,214,215,216,217,218,219,220,221,222,223,224,225,226,227,228,229,230,231,232,233,234,235,236,237,238,239,240,241,242,243,244,245,246,247,248,249,250,251,252,253,254
0.2229698933793296,0.21057612170629092,0.21983364400429384,0.28050992917676165,0.3600983897171046,0.4579956937054188,0.5536422470120552,0.5909788513630048,0.5363942478844441,0.4944356425226655,0.5183246188327448,0.5898959034729829,0.6690307888743678,0.749635894196091,0.8185535702545259,0.858906748513161,0.827172245694662,0.8069629235271663,0.796524203668846,0.7711191265041784,0.7413885997939786,0.7043627144014453,0.6559692971094613,0.6199031891856048,0.5363622054458297,0.4384626067687343,0.3405214261096656,0.24258024545059875,0.14464014759294663,0.04964688589876953,0.009058512097536386,0.00015663566698176368,0.0,0.0023922580420743245,0.014369935547415835,0.06536768450644281,0.16183388079359773,0.259774975201136,0.35771615586020467,0.45540428720939374,0.5322690885957337,0.5767821106029256,0.5510742848162247,0.5187715319506667,0.47254259921977226,0.4279771474495959,0.39539787753308264,0.3759969592510055,0.3513156520665275,0.36079980495246744,0.394943032122292,0.45034761945314195,0.48757134949238257,0.5361934222747413,0.5930797285761029,0.6517757795751198,0.7018959327501664,0.7764895188648282,0.8094185992707148,0.8620662876614169,0.9068854080770157,0.9120077819029593,0.915129442351442,0.9446108488710561,0.9470821243176948,0.9433004723933438,0.9146160560327816,0.9245705794074821,0.9467876883906285,0.9470827127896655,0.9470827127896655,0.9470827127896655,0.9470827127896655,0.9470827127896655,0.9470824093227463,0.9438464625923908,0.9147620435598247,0.9120070461567673,0.9141769891614766,0.9379348604197872,0.9143986223213716,0.9257204682852391,0.9468820787666727,0.9472915432526978,0.9661317993507277,0.9821125013356538,0.9725563554204761,0.9176472098242892,0.895371058683593,0.8772574386398375,0.8924767197326471,0.9119402597455499,0.9120054640985664,0.912012461503787,0.9185586861343671,0.9440032056061067,0.9155471397409345,0.8864731567771811,0.8000716615294596,0.7432267604603187,0.6926043622982814,0.6150757484514866,0.5986314302475906,0.636364252319428,0.7183289183913271,0.8024524166899729,0.879110358470272,0.9519257360692484,0.950164940731578,0.8897833935938673,0.8670879915412852,0.8123061144912311,0.8067494517891678,0.7928930828088347,0.7607776190477891,0.7148112790731638,0.69505211930933,0.6621524563134313,0.60754564990871,0.5960954689248998,0.5669843527366965,0.5209534379920724,0.4877976423122625,0.45773721841573956,0.4325638544759727,0.419956908834612,0.39197315876162975,0.4074695563401871,0.45594685959801673,0.5046678909623372,0.5539555310464195,0.6027160850912701,0.6578666304401741,0.7182078955671667,0.7778689636220921,0.8425300175775794,0.8858922411070296,0.9301802252138014,0.9470458391653231,0.9470827127896655,0.9470827127896655,0.9470827127896655,0.9470827127896655,0.9470849695116836,0.9500200027760366,0.9793878029526795,0.9821596972453115,0.9821435378425472,0.9722417495970648,0.9587197871833997,0.9525342018515186,0.9551449901132081,0.981384777342722,0.9821599614807646,0.9821599614807646,0.9821599614807646,0.9821599614807646,0.9821600004237627,0.982627871715632,1.0,0.9662929910698583,0.9472677245401826,0.9470855858004992,0.9502823545937495,0.9730121091108863,0.9484784140621976,0.9472151457348872,0.9625664676123744,0.9741861867992316,0.9480211034993102,0.9420451694692193,0.8970056682365373,0.8187659593123344,0.7529170880210758,0.6880770685564617,0.6392668048016512,0.6387021768258645,0.6980008877032793,0.7750690688525479,0.8504844746418891,0.9342150541166117,0.9690134877007397,0.9229098376850366,0.8813381597270453,0.8596264055599736,0.8415197771312419,0.8170010465822415,0.7841954288335797,0.7511611337881847,0.7084661803596175,0.6877244117593051,0.6558509942852924,0.6237440908299234,0.5906772606907476,0.5576104305515717,0.5245263067072603,0.48337074455713847,0.4564518335760006,0.45601039961607626,0.4642887371301141,0.4915366197836155,0.5231853618709197,0.5717976854616795,0.6212328995876968,0.6833901158872697,0.7375954731454266,0.8122985323153076,0.8535437363273024,0.8990172435664459,0.931306721368629,0.9470474679252803,0.9470827127896655,0.9470827127896655,0.9470827127896655,0.9470827127896655,0.9470827127896655,0.9470827127896655,0.9470924597911425,0.9558710716746255,0.9814627520011934,0.9821515006690031,0.9743646931214496,0.9483063704666019,0.9670684454924823,0.9565721200267951,0.9470933605209515,0.9470827127896655,0.9470827127896655,0.9470827127896655,0.9470682798580619,0.9375791473355353,0.892051561865582,0.8770390949420532,0.8770832661919021,0.8934642628874379,0.9031572192092865,0.8802728480286071,0.9083870741282905,0.9120051283233828,0.9120053337116394,0.9107555686470281,0.8614617276748122,0.7920775586970414,0.7213830953376732,0.6562494536988481,0.5910311485091961,0.5326745670780166,0.5487716206468347,0.5985367600150813,0.6785411441724412,0.7761448089899998,0.8489241795429887,0.8918836824857355,0.8754419210110518,0.8219948704006903
0,1,2,3,4,5,6,7,8,9,10,11,12,13,14,15,16,17,18,19,20,21,22,23,24,25,26,27,28,29,30,31,32,33,34,35,36,37,38,39,40,41,42,43,44,45,46,47,48,49,50,51,52,53,54,55,56,57,58,59,60,61,62,63,64,65,66,67,68,69,70,71,72,73,74,75,76,77,78,79,80,81,82,83,84,85,86,87,88,89,90,91,92,93,94,95,96,97,98,99,100,101,102,103,104,105,106,107,108,109,110,111,112,113,114,115,116,117,118,119,120,121,122,123,124,125,126,127,128,129,130,131,132,133,134,135,136,137,138,139,140,141,142,143,144,145,146,147,148,149,150,151,152,153,154,155,156,157,158,159,160,161,162,163,164,165,166,167,168,169,170,171,172,173,174,175,176,177,178,179,180,181,182,183,184,185,186,187,188,189,190,191,192,193,194,195,196,197,198,199,200,201,202,203,204,205,206,207,208,209,210,211,212,213,214,215,216,217,218,219,220,221,222,223,224,225,226,227,228,229,230,231,232,233,234,235,236,237,238,239,240,241,242,243,244,245,246,247,248,249,250,251,252,253,254
0.2229698933793296,0.21057612170629092,0.21983364400429384,0.28050992917676165,0.3600983897171046,0.4579956937054188,0.5536422470120552,0.5909788513630048,0.5363942478844441,0.4944356425226655,0.5183246188327448,0.5898959034729829,0.6690307888743678,0.749635894196091,0.8185535702545259,0.858906748513161,0.827172245694662,0.8069629235271663,0.796524203668846,0.7711191265041784,0.7413885997939786,0.7043627144014453,0.6559692971094613,0.6199031891856048,0.5363622054458297,0.4384626067687343,0.3405214261096656,0.24258024545059875,0.14464014759294663,0.04964688589876953,0.009058512097536386,0.00015663566698176368,0.0,0.0023922580420743245,0.014369935547415835,0.06536768450644281,0.16183388079359773,0.259774975201136,0.35771615586020467,0.45540428720939374,0.5322690885957337,0.5767821106029256,0.5510742848162247,0.5187715319506667,0.47254259921977226,0.4279771474495959,0.39539787753308264,0.3759969592510055,0.3513156520665275,0.36079980495246744,0.394943032122292,0.45034761945314195,0.48757134949238257,0.5361934222747413,0.5930797285761029,0.6517757795751198,0.7018959327501664,0.7764895188648282,0.8094185992707148,0.8620662876614169,0.9068854080770157,0.9120077819029593,0.915129442351442,0.9446108488710561,0.9470821243176948,0.9433004723933438,0.9146160560327816,0.9245705794074821,0.9467876883906285,0.9470827127896655,0.9470827127896655,0.9470827127896655,0.9470827127896655,0.9470827127896655,0.9470824093227463,0.9438464625923908,0.9147620435598247,0.9120070461567673,0.9141769891614766,0.9379348604197872,0.9143986223213716,0.9257204682852391,0.9468820787666727,0.9472915432526978,0.9661317993507277,0.9821125013356538,0.9725563554204761,0.9176472098242892,0.895371058683593,0.8772574386398375,0.8924767197326471,0.9119402597455499,0.9120054640985664,0.912012461503787,0.9185586861343671,0.9440032056061067,0.9155471397409345,0.8864731567771811,0.8000716615294596,0.7432267604603187,0.6926043622982814,0.6150757484514866,0.5986314302475906,0.636364252319428,0.7183289183913271,0.8024524166899729,0.879110358470272,0.9519257360692484,0.950164940731578,0.8897833935938673,0.8670879915412852,0.8123061144912311,0.8067494517891678,0.7928930828088347,0.7607776190477891,0.7148112790731638,0.69505211930933,0.6621524563134313,0.60754564990871,0.5960954689248998,0.5669843527366965,0.5209534379920724,0.4877976423122625,0.45773721841573956,0.4325638544759727,0.419956908834612,0.39197315876162975,0.4074695563401871,0.45594685959801673,0.5046678909623372,0.5539555310464195,0.6027160850912701,0.6578666304401741,0.7182078955671667,0.7778689636220921,0.8425300175775794,0.8858922411070296,0.9301802252138014,0.9470458391653231,0.9470827127896655,0.9470827127896655,0.9470827127896655,0.9470827127896655,0.9470849695116836,0.9500200027760366,0.9793878029526795,0.9821596972453115,0.9821435378425472,0.9722417495970648,0.9587197871833997,0.9525342018515186,0.9551449901132081,0.981384777342722,0.9821599614807646,0.9821599614807646,0.9821599614807646,0.9821599614807646,0.9821600004237627,0.982627871715632,1.0,0.9662929910698583,0.9472677245401826,0.9470855858004992,0.9502823545937495,0.9730121091108863,0.9484784140621976,0.9472151457348872,0.9625664676123744,0.9741861867992316,0.9480211034993102,0.9420451694692193,0.8970056682365373,0.8187659593123344,0.7529170880210758,0.6880770685564617,0.6392668048016512,0.6387021768258645,0.6980008877032793,0.7750690688525479,0.8504844746418891,0.9342150541166117,0.9690134877007397,0.9229098376850366,0.8813381597270453,0.8596264055599736,0.8415197771312419,0.8170010465822415,0.7841954288335797,0.7511611337881847,0.7084661803596175,0.6877244117593051,0.6558509942852924,0.6237440908299234,0.5906772606907476,0.5576104305515717,0.5245263067072603,0.48337074455713847,0.4564518335760006,0.45601039961607626,0.4642887371301141,0.4915366197836155,0.5231853618709197,0.5717976854616795,0.6212328995876968,0.6833901158872697,0.7375954731454266,0.8122985323153076,0.8535437363273024,0.8990172435664459,0.931306721368629,0.9470474679252803,0.9470827127896655,0.9470827127896655,0.9470827127896655,0.9470827127896655,0.9470827127896655,0.9470827127896655,0.9470924597911425,0.9558710716746255,0.9814627520011934,0.9821515006690031,0.9743646931214496,0.9483063704666019,0.9670684454924823,0.9565721200267951,0.9470933605209515,0.9470827127896655,0.9470827127896655,0.9470827127896655,0.9470682798580619,0.9375791473355353,0.892051561865582,0.8770390949420532,0.8770832661919021,0.8934642628874379,0.9031572192092865,0.8802728480286071,0.9083870741282905,0.9120051283233828,0.9120053337116394,0.9107555686470281,0.8614617276748122,0.7920775586970414,0.7213830953376732,0.6562494536988481,0.5910311485091961,0.5326745670780166,0.5487716206468347,0.5985367600150813,0.6785411441724412,0.7761448089899998,0.8489241795429887,0.8918836824857355,0.8754419210110518,0.8219948704006903
0,1,2,3,4,5,6,7,8,9,10,11,12,13,14,15,16,17,18,19,20,21,22,23,24,25,26,27,28,29,30,31,32,33,34,35,36,37,38,39,40,41,42,43,44,45,46,47,48,49,50,51,52,53,54,55,56,57,58,59,60,61,62,63,64,65,66,67,68,69,70,71,72,73,74,75,76,77,78,79,80,81,82,83,84,85,86,87,88,89,90,91,92,93,94,95,96,97,98,99,100,101,102,103,104,105,106,107,108,109,110,111,112,113,114,115,116,117,118,119,120,121,122,123,124,125,126,127,128,129,130,131,132,133,134,135,136,137,138,139,140,141,142,143,144,145,146,147,148,149,150,151,152,153,154,155,156,157,158,159,160,161,162,163,164,165,166,167,168,169,170,171,172,173,174,175,176,177,178,179,180,181,182,183,184,185,186,187,188,189,190,191,192,193,194,195,196,197,198,199,200,201,202,203,204,205,206,207,208,209,210,211,212,213,214,215,216,217,218,219,220,221,222,223,224,225,226,227,228,229,230,231,232,233,234,235,236,237,238,239,240,241,242,243,244,245,246,247,248,249,250,251,252,253,254
0.7583040440017368,0.7583040440017368,0.7583040440017368,0.7583040440017368,0.7583040440017368,0.7583040440017368,0.7583040440017368,0.7583040440017368,0.7583040440017368,0.7583390718193881,0.7660851567234346,0.7823195432897063,0.766220910794059,0.7595646741267212,0.777285101844019,0.7620876671475618,0.7801685298473768,0.7827803538093665,0.782780353809367,0.7827811652556376,0.7844014686873018,0.8017606903660743,0.7841872415831364,0.7828766594192071,0.7956247036229125,0.8072474672259298,0.8072566636169984,0.8058149533147643,0.7870893222250612,0.8041947959397162,0.8072566636169984,0.8072566636169984,0.8072543194388824,0.8028426812585145,0.7837865889774926,0.7922246515600713,0.8071086695043532,0.8072566636169984,0.8072566636169984,0.807021920928368,0.7905614665310652,0.7828170495999074,0.7867666638023536,0.8065348880181844,0.8072566636169984,0.8072566636169984,0.8072584217505843,0.8115140309477487,0.831191305472629,0.8317343258350784,0.8347687795215011,0.8503410512515956,0.8019996605901007,0.7382430685123453,0.674699483789412,0.6280906844972645,0.571207247425098,0.5073978720913592,0.4435674955342055,0.3800412605264687,0.3336861688568895,0.2765363499783704,0.21272229911321938,0.14984727808771892,0.12262507268423883,0.1345652162513944,0.17310080358088875,0.2158151326468576,0.27703228775122124,0.33957850758513963,0.3836404369213482,0.4440477838202792,0.5078077054314045,0.5612013622714582,0.6111668628659754,0.6748435651865905,0.7301287114206385,0.7781835891227415,0.8273438173295555,0.8391058772471376,0.8557484727125977,0.8400631754510357,0.8379261703942258,0.8480641268735876,0.8335368211953846,0.850713309981336,0.8332928805585156,0.8317336947102016,0.8317329734246282,0.8317329734246282,0.8317329734246282,0.8317329734246282,0.8317329734246282,0.8323747643978043,0.85010182479235,0.8375067416042961,0.8518876537949498,0.8575221955332348,0.8773531130889043,0.882337131468454,0.9028915904963362,0.9163087839907997,0.9468491858341221,0.954109112820976,0.9540966512141149,0.9422642889301769,0.9220218279070189,0.88702233139619,0.8547284738762371,0.8276416155464266,0.8075950794066786,0.7877648695237189,0.760817892944694,0.7633757554348413,0.7823195432897063,0.7700858775456445,0.7583881648992143,0.7583061627781107,0.7636407720059251,0.7758575817841411,0.7588251325400566,0.7624226368785223,0.7772843805584446,0.7601078917724928,0.7785448562051553,0.7787246032091812,0.7593742891832451,0.7583040440017368,0.7583040440017368,0.7583320585222695,0.7656785707167866,0.7823195432897063,0.7666342460281443,0.7644972409713335,0.7746351974506958,0.7601078917724928,0.7798929587353522,0.7768859816713269,0.7589152311028897,0.7583047202069619,0.7598333472636005,0.7800773940956094,0.7817884167403348,0.7619725644169644,0.7705124167853441,0.7827451328455037,0.7827753048103498,0.7760359686556164,0.7587928156147945,0.7583040440017368,0.7583040440017368,0.7583040440017368,0.7583297207565636,0.7655430420479048,0.7825109116903435,0.782780353809367,0.782780353809367,0.782780353809367,0.782772599989447,0.7728484198467029,0.7586318926182383,0.7741249721021131,0.7863534059041464,0.806372225102503,0.8209374618691494,0.8151650102234775,0.8069725379357395,0.789206179842239,0.7827920039699587,0.7837936022746104,0.8128533061269887,0.8146086653040889,0.7728806618451252,0.7151995670053948,0.651376165077421,0.5875457885202664,0.5240716026581214,0.4784776338562473,0.4205286695586685,0.3567005920992803,0.29287021554212656,0.2294133793951798,0.18407311821587236,0.12585354738401122,0.0654484094221508,0.02313310763678622,0.0,0.018227300872682317,0.059990175943827495,0.11913771600238121,0.17925153257421256,0.2232227352245837,0.28615122853611075,0.3499652794012613,0.4071150982797813,0.45347018994936183,0.5169964249570986,0.5808268015142493,0.6446568174286171,0.7071724784708611,0.7504243859656623,0.7822208146087011,0.783819995118852,0.803112842728734,0.8072548604030638,0.808020870078269,0.8267786681257059,0.8317295473181519,0.8317329734246282,0.8317329734246282,0.8317329734246282,0.8317329734246282,0.8317329734246282,0.831768001242279,0.8395140861463264,0.8559745405436288,0.8562232711585556,0.8627706379340139,0.8803734979184479,0.8822455001737777,0.9026144157289981,0.9155794626129459,0.9461873645527814,0.9589028053638651,0.9969660546724515,0.9999999999999996,0.9799088270421854,0.960985858954214,0.9214851970425619,0.9002298724828965,0.8665439529808547,0.8330698433557053,0.8173903429502682,0.7884591350615286,0.777313197116253,0.7590558842130033,0.7696608710377886,0.782702499273797,0.7726369985211359,0.760640655385199,0.780887878506269,0.782780353809367,0.7827720590252665,0.7722739910910432,0.7682808468148337,0.7826497094119196,0.782780353809367,0.782780353809367,0.782780353809367,0.782780353809367,0.782780353809367,0.782780353809367,0.7828995411924349,0.7974802940431647,0.7904395225474121
0,1,2,3,4,5,6,7,8,9,10,11,12,13,14,15,16,17,18,19,20,21,22,23,24,25,26,27,28,29,30,31,32,33,34,35,36,37,38,39,40,41,42,43,44,45,46,47,48,49,50,51,52,53,54,55,56,57,58,59,60,61,62,63,64,65,66,67,68,69,70,71,72,73,74,75,76,77,78,79,80,81,82,83,84,85,86,87,88,89,90,91,92,93,94,95,96,97,98,99,100,101,102,103,104,105,106,107,108,109,110,111,112,113,114,115,116,117,118,119,120,121,122,123,124,125,126,127,128,129,130,131,132,133,134,135,136,137,138,139,140,141,142,143,144,145,146,147,148,149,150,151,152,153,154,155,156,157,158,159,160,161,162,163,164,165,166,167,168,169,170,171,172,173,174,175,176,177,178,179,180,181,182,183,184,185,186,187,188,189,190,191,192,193,194,195,196,197,198,199,200,201,202,203,204,205,206,207,208,209,210,211,212,213,214,215,216,217,218,219,220,221,222,223,224,225,226,227,228,229,230,231,232,233,234,235,236,237,238,239,240,241,242,243,244,245,246,247,248,249,250,251,252,253,254
