0,1,2,3,4,5,6,7,8,9,10,11,12,13,14,15,16,17,18,19,20,21,22,23,24,25,26,27,28,29,30,31,32,33,34,35,36,37,38,39,40,41,42,43,44,45,46,47,48,49,50,51,52,53,54,55,56,57,58,59,60,61,62,63,64,65,66,67,68,69,70,71,72,73,74,75,76,77,78,79,80,81,82,83,84,85,86,87,88,89,90,91,92,93,94,95,96,97,98,99,100,101,102,103,104,105,106,107,108,109,110,111,112,113,114,115,116,117,118,119,120,121,122,123,124,125,126,127,128,129,130,131,132,133,134,135,136,137,138,139,140,141,142,143,144,145,146,147,148,149,150,151,152,153,154,155,156,157,158,159,160,161,162,163,164,165,166,167,168,169,170,171,172,173,174,175,176,177,178,179,180,181,182,183,184,185,186,187,188,189,190,191,192,193,194,195,196,197,198,199,200,201,202,203,204,205,206,207,208,209,210,211,212,213,214,215,216,217,218,219,220,221,222,223,224,225,226,227,228,229,230,231,232,233,234,235,236,237,238,239,240,241,242,243,244,245,246,247,248,249,250,251,252,253,254
0.2900785958447194,0.3403478627369416,0.38781371173451284,0.4374675587996786,0.491688311741304,0.5434923602240336,0.5891699067773433,0.6428806410735415,0.6971487196762844,0.7513604448452262,0.8002448120555996,0.8484364517915497,0.9025454202871546,0.9507680584893772,0.979757591978023,0.9619356275454181,0.9279924170328406,0.8877978052184228,0.8353458583190958,0.7810968074128712,0.7301716776856104,0.683851492108398,0.6298943726016313,0.5756261291287912,0.5213825016028524,0.4712426734663444,0.42423123088432324,0.37019750512667193,0.32120821237637087,0.2901310904866492,0.2422175625229357,0.1921626651288555,0.14515758302788329,0.09603768628743437,0.05392358467074154,0.04044146661666437,0.04635767752006359,0.05055713665476813,0.07194154071805148,0.07795091402367849,0.0557481971712348,0.03145378643719532,0.04099425065910589,0.04641854478052099,0.0464649090752578,0.04364534621052352,0.03596265240443697,0.04421979004290999,0.047345232528279046,0.05827839870459539,0.07614090438585275,0.08130334523525895,0.07889102004990778,0.06361232769578407,0.04710485027725442,0.029238406050960064,0.02142649021923959,0.01242138327314124,0.009235503817748736,0.0019842992505716417,0.015729818224553993,0.04347766684406906,0.08337586341026282,0.12761504947113367,0.17710122297363884,0.22366784220941827,0.27666999426689043,0.3218968243136564,0.3745151101776669,0.42444353501420484,0.47165816154546536,0.5257262788483936,0.5776722686478462,0.6232643573821355,0.6769179268235457,0.731185799338667,0.7847281554448362,0.8301780981542477,0.8823564720608157,0.9326153154622789,0.9584500621817205,0.9329446855695671,0.8831477986590344,0.8370198674424929,0.7858545548850187,0.7317030438370427,0.684639853508646,0.6513376025766984,0.6036049313312819,0.5493828552024291,0.4966577835269159,0.45144519644998726,0.39819447117827855,0.3445320337414579,0.2989257020373326,0.24701944222203287,0.19602177330092174,0.14987170639086322,0.10231580699908305,0.06120086212146547,0.046820810075671515,0.04665995678795576,0.05656162176572699,0.08156665782458772,0.08374114262554255,0.05845741209626776,0.03942869991201614,0.045705200761510856,0.04647632164134974,0.046476581311752696,0.04616158079419597,0.03842594851025383,0.036888818507144316,0.045912014996096984,0.05636509476251805,0.07347261517519343,0.0881102811178125,0.08213886378198243,0.06399972355081385,0.04501958398898265,0.02925401497261615,0.02053791364749924,0.01175662990327897,0.003469751341194316,0.0008582072673808394,0.013957042300085654,0.041310623300123916,0.07975114248195148,0.12172963672478598,0.1665841522208935,0.21831043827258312,0.26474430316716213,0.31551187796598135,0.3688911234943568,0.414139317995877,0.46667727888677946,0.5187860931881547,0.5642784811335859,0.6178653582444096,0.67213151114348,0.7246638117268824,0.7699896628308711,0.8233192980951485,0.8773778986739085,0.9242060320125478,0.9584093087342336,0.9386553264865898,0.8894509875702525,0.8441228166276302,0.7906690522159148,0.7401369195112337,0.6934866667938102,0.6394630805187569,0.5852629641455838,0.5362384910379234,0.4881695018668044,0.43400940858192594,0.38027961933413157,0.33457358684114813,0.2828189526782585,0.23000966510207665,0.18481828371480158,0.13362300610474986,0.08970960546171014,0.049390875627706166,0.03667298577598488,0.05226090923708471,0.06020379436542678,0.08184892060472904,0.08902209847532094,0.06487532488302161,0.039220097289215605,0.043954145957227686,0.04557235701264051,0.0440319157502278,0.046455691710602265,0.046476581311752696,0.04648327836457766,0.04907441126299128,0.06385356013771104,0.07508452109036967,0.0806158485058972,0.07077361522786907,0.05277538824566874,0.03521486054905454,0.018742150054475326,0.007695827240455477,0.00021638196266637877,0.0,0.0006389085863334198,0.01550060483243798,0.048935848374083823,0.09197332893688026,0.13904593929040554,0.18412530790806225,0.23642201247162764,0.2820647057408545,0.33395204660240263,0.38661054712261955,0.4318899702521344,0.4851340212547719,0.5392136281435571,0.586441784644337,0.6363486476734963,0.6905873199616857,0.7447310759860029,0.7926142932750382,0.8418330941694327,0.8960365697350829,0.9482323160670403,0.9910111967034922,1.0000000000000002,0.9612148832723257,0.9100903159309739,0.8645034512886782,0.8108796521844421,0.7569528186518191,0.7105643239551773,0.659682894031149,0.6054258194992672,0.5513971092742314,0.5044685820723005,0.4542135888888399,0.39997212283192174,0.3461851687293407,0.300393678417336,0.24878071630983922,0.19586289805954515,0.1507096942350319,0.10136847135086824,0.06061258427769123,0.03651447220300619,0.03998138573720644,0.04740200678970741,0.06672707179344362,0.08823109498022497,0.07084205369968277,0.04271939222311372,0.03207230337910594,0.04381218502769868,0.04644624723514368,0.04266721274921759,0.035184167777443154,0.04090462785788773,0.046404239199805186,0.04883117872624387,0.05933216256185614,0.0702572693914092,0.07706525095319816,0.06719014351808172,0.04934159596263821,0.03615854792963158,0.020646455073831005,0.0032836934030264775,9.756765757984454e-06
0,1,2,3,4,5,6,7,8,9,10,11,12,13,14,15,16,17,18,19,20,21,22,23,24,25,26,27,28,29,30,31,32,33,34,35,36,37,38,39,40,41,42,43,44,45,46,47,48,49,50,51,52,53,54,55,56,57,58,59,60,61,62,63,64,65,66,67,68,69,70,71,72,73,74,75,76,77,78,79,80,81,82,83,84,85,86,87,88,89,90,91,92,93,94,95,96,97,98,99,100,101,102,103,104,105,106,107,108,109,110,111,112,113,114,115,116,117,118,119,120,121,122,123,124,125,126,127,128,129,130,131,132,133,134,135,136,137,138,139,140,141,142,143,144,145,146,147,148,149,150,151,152,153,154,155,156,157,158,159,160,161,162,163,164,165,166,167,168,169,170,171,172,173,174,175,176,177,178,179,180,181,182,183,184,185,186,187,188,189,190,191,192,193,194,195,196,197,198,199,200,201,202,203,204,205,206,207,208,209,210,211,212,213,214,215,216,217,218,219,220,221,222,223,224,225,226,227,228,229,230,231,232,233,234,235,236,237,238,239,240,241,242,243,244,245,246,247,248,249,250,251,252,253,254
0.20171681995270863,0.18556087038499358,0.17736474381757183,0.18865662933268634,0.19079814602424472,0.19080131067535788,0.19069610125205916,0.18066694281059315,0.15606585776145998,0.13929721630171876,0.15260166948657794,0.17386000933546608,0.176290676611226,0.1760514871849046,0.16670867204378093,0.16032507384373673,0.14783068321356652,0.13623433569574672,0.15184022172473055,0.17798905475370042,0.20853954349106107,0.23957574209762056,0.28606504194087146,0.33769105911312547,0.37874654683808684,0.4285181117447032,0.4717688357273606,0.5190143765771937,0.5713632505655029,0.6191993792513655,0.6619476738294967,0.71344339719057,0.7547498387514522,0.8034706068197077,0.8444287998659861,0.8934896076886325,0.9343035324737383,0.9803755787159845,1.0,0.9791812552864219,0.9329572537870803,0.8920729956253148,0.8406863358715357,0.7882927689767807,0.7358992020820261,0.683505635187271,0.6311659613490712,0.5848896080842452,0.5407097373014111,0.48843772977780864,0.43604416288305403,0.3836505959882994,0.3312570290935444,0.2789444213653436,0.23382890942202383,0.18954492838595494,0.1766243044120519,0.20142903650647526,0.21877567762481043,0.21981368636464982,0.21981402817820195,0.21937814288599888,0.20876291455580276,0.19314099973277443,0.16193192151722968,0.16273157824624596,0.1903810784305433,0.2034435757547084,0.20940762907220423,0.21944663795757657,0.21696411493430867,0.20539865018916803,0.1905091487718118,0.17805506487216682,0.19274825902496273,0.21410394493508145,0.22752696894653157,0.23691229997222685,0.2482046301903993,0.24837722331150314,0.234472902031988,0.21009207782233164,0.18593859781468725,0.1810526232346228,0.1916355073800977,0.2042206214981297,0.2267598115201035,0.2540801256398808,0.27229575711657805,0.2722487845900514,0.25076048799195005,0.22375996273537968,0.2201457677970926,0.25094724933688006,0.2973960575949852,0.33937242763862185,0.3827937885514636,0.42922856794389475,0.47168805978892614,0.5077729549506742,0.5464198056071168,0.5831145614062008,0.6259631491344755,0.6647426591335943,0.6768571114688013,0.6434051896600157,0.5927630202670877,0.551828094062941,0.5015773379831248,0.4491852203778297,0.3967985089457242,0.3475386984526132,0.3060091868153578,0.2541173149683682,0.20192374834226445,0.1758335868567329,0.2059050204763304,0.23535357986368766,0.2493171466415478,0.260305604278952,0.2506111999795988,0.23417669987755296,0.2177927093181049,0.1974748521416836,0.17910285859994612,0.15594447109255594,0.1668591345043744,0.18859778606835587,0.20153934789823058,0.20529897197649793,0.20521656388711174,0.19750320625812012,0.19009697148527271,0.17978909101318363,0.18901579759228682,0.1989269951630619,0.2010699094349735,0.19020371581701934,0.17348476439866234,0.15075453840522313,0.12314052703532408,0.10998066601803203,0.10077714421321726,0.09101069850319288,0.10073568194025917,0.09058623949392297,0.07897308261532388,0.057998335043862426,0.03450891267174949,0.008531631233632098,0.0,0.031022563369820233,0.06019721700102698,0.075297033615489,0.0886714699354636,0.10157381974900925,0.09874959111048831,0.0881613697725343,0.07050120663460158,0.05598432001105147,0.05115338669686986,0.06006044174909686,0.06714309366332305,0.09160312903421675,0.11883414067816567,0.1571289152751767,0.1965756604176936,0.23861397379153315,0.28591657495712974,0.32879309748653585,0.37844112725073753,0.4058524705328286,0.42938022115498153,0.4685824830241194,0.4781416674057559,0.4471782420578938,0.40552340118569585,0.35889266079643933,0.32777655023354235,0.27775512454113427,0.2329804847571264,0.1873537803968297,0.13499448209364884,0.08260495486687214,0.03461602103286232,0.043905250415535946,0.07843208437421811,0.10348736133529668,0.12214712468456623,0.13262986049196712,0.1311897296401101,0.11954949458649722,0.11827004672925279,0.11828429021217923,0.12290748732467938,0.14636918160360368,0.16333255034163807,0.17535001058824706,0.17624185506281842,0.1701733297018011,0.16183864602598996,0.15362765070314266,0.13894190521027383,0.15723687912504491,0.16177696687081422,0.1598938170373274,0.15077713233642465,0.16243998748897015,0.17487533758518747,0.17831157687556454,0.19888069581774737,0.23489701664599272,0.27527586230594814,0.3165893255518899,0.36521795769636345,0.4137170557649035,0.45589840195473696,0.5075281701546626,0.5491257621402426,0.5879779840045591,0.62407369510812,0.663584239909766,0.7100443609425349,0.7494272746779851,0.7665870845234033,0.7381778398792367,0.6874298743591547,0.6350652739336522,0.5878197330838209,0.544564245098385,0.49236298071780693,0.4399694138230523,0.38757584692829683,0.3351917190642668,0.28680162595240954,0.24462308381225117,0.19261742187501385,0.1584151275491541,0.17341882056667357,0.17718699540745808,0.18863594233321734,0.1907896912099294,0.18716224112573387,0.17666705957436823,0.18309607963183216,0.19071245722672092,0.19071358498130397,0.18330461648428775,0.18947057848712934,0.20496197658225945,0.20420399424597546,0.187245657833508,0.17647002681580082,0.1763518684576848,0.18311782165577561
0,1,2,3,4,5,6,7,8,9,10,11,12,13,14,15,16,17,18,19,20,21,22,23,24,25,26,27,28,29,30,31,32,33,34,35,36,37,38,39,40,41,42,43,44,45,46,47,48,49,50,51,52,53,54,55,56,57,58,59,60,61,62,63,64,65,66,67,68,69,70,71,72,73,74,75,76,77,78,79,80,81,82,83,84,85,86,87,88,89,90,91,92,93,94,95,96,97,98,99,100,101,102,103,104,105,106,107,108,109,110,111,112,113,114,115,116,117,118,119,120,121,122,123,124,125,126,127,128,129,130,131,132,133,134,135,136,137,138,139,140,141,142,143,144,145,146,147,148,149,150,151,152,153,154,155,156,157,158,159,160,161,162,163,164,165,166,167,168,169,170,171,172,173,174,175,176,177,178,179,180,181,182,183,184,185,186,187,188,189,190,191,192,193,194,195,196,197,198,199,200,201,202,203,204,205,206,207,208,209,210,211,212,213,214,215,216,217,218,219,220,221,222,223,224,225,226,227,228,229,230,231,232,233,234,235,236,237,238,239,240,241,242,243,244,245,246,247,248,249,250,251,252,253,254
0.8504136260552189,0.81656644447422,0.7866425368207342,0.756263052162963,0.7103861984782256,0.6680024476387132,0.6379499952349255,0.6178163108001016,0.6007413517322777,0.5817899456502524,0.5789850986293565,0.5789837665710431,0.5789837665710431,0.5789837665710431,0.578943925365786,0.5707961174462057,0.5612225783082447,0.576500012292096,0.5749581494751292,0.5603359237842405,0.5667306288858911,0.5787585558681525,0.5664852905801587,0.5596595098682604,0.5596361901266289,0.5596485160266016,0.5644618312769736,0.5784796915886878,0.5789837665710431,0.5781245933024182,0.5644777202124747,0.5661515215052768,0.5675280389370485,0.5795494114612434,0.5942682317461503,0.6033757717730754,0.6375224297475865,0.6470843377178488,0.6271554426145505,0.5982433166696643,0.5754043466735466,0.5601782459232756,0.5596361901266289,0.5596229440134364,0.552988226911828,0.5198094948700218,0.47990783577733254,0.44878353419443995,0.44521262539014295,0.4743044713314446,0.5203516004825901,0.573229091148876,0.6201929172931955,0.6485704293304235,0.5996710499682023,0.5418000740941289,0.49766598398394546,0.4399570850121548,0.39411185521444425,0.3391244601326049,0.28900572625528076,0.23867521811279646,0.18991192957111158,0.13933216395890868,0.09703991765672759,0.057075011788910945,0.017495564828704513,0.0,0.026544633928931916,0.07010411294209984,0.11374097433794716,0.1588745798590101,0.21183207230984946,0.26466567762519144,0.3123159439804728,0.3715143595162975,0.4168528429117262,0.4715419734766546,0.5163250652088398,0.5618910745339396,0.6005296881844231,0.6292981385613796,0.638805971575231,0.6547600843288008,0.6635918383672914,0.6781196362821826,0.6947646225369484,0.7137830086342785,0.737111991516012,0.7629745788717357,0.7847637014550823,0.8154486443842837,0.8489294237687055,0.8756401488097869,0.9134532644592346,0.9491014898838235,0.9809786580253399,1.0,0.9888107610424215,0.9511629171735971,0.9198548657507506,0.8844155182221876,0.8590780733023409,0.8199991174356365,0.7808916122911098,0.7509149813945393,0.7219886607593673,0.7003980741350873,0.67536709349912,0.6445690020287818,0.6381638978000979,0.652700458277903,0.6414389293958447,0.6431018925068979,0.67064940514555,0.6934564951179842,0.6901568325998602,0.6786233170342895,0.6941213698668536,0.6883280946438965,0.6769796518380122,0.6917461941579677,0.6944484719149431,0.679934120457645,0.6757306432259171,0.675745634828179,0.6826003517544201,0.6830816368762656,0.6757483000019144,0.6757216487931137,0.67534385165041,0.6618741999334392,0.6563398148821453,0.6474625998670049,0.6371898136191709,0.6432018620450934,0.6581102882810446,0.6837048145641429,0.7132668984275878,0.7082506035277802,0.68198715801257,0.6598602476066402,0.6385163055007284,0.633937809020924,0.6187977326145657,0.6176070071702258,0.6062842965071371,0.566154375144329,0.5240478777034703,0.4964288183075882,0.4857542638650303,0.5144589098042216,0.5604633605108544,0.6108946001475091,0.6633408212062579,0.6474175862596656,0.6037751954506265,0.5476513482857515,0.49903141872009327,0.4471687969215403,0.39310584117141145,0.3465162098498791,0.28919648977793644,0.24539601385095278,0.2009681768822995,0.14604029911556848,0.08694892369961149,0.04639717842150137,0.020967813340941,0.020096899825969405,0.04699719348972131,0.09891259216865977,0.1432522018110589,0.19830786840077463,0.24344297357046285,0.2977065761880202,0.3436337453298641,0.397105283975268,0.44384737084833903,0.5013637591762099,0.5446948196319199,0.5886495580703457,0.6254444534187455,0.6463816833592517,0.6662614966589553,0.6756644629625965,0.6759362848865611,0.6876238048022874,0.7011750750327441,0.7207584696194713,0.7357377447130249,0.7600903741785747,0.7900629267020718,0.8200534348188642,0.8565655673065069,0.8963304784766768,0.925391529759755,0.9431947822352797,0.9303739233804715,0.9062873014638502,0.8681067973134149,0.8374924210913455,0.7955145286431033,0.7581779390314023,0.7203096310226096,0.6888393633615424,0.6532306248129389,0.6193445365468517,0.5901016092467772,0.5751982745202051,0.5659424550954264,0.5622096799641882,0.5670994589775695,0.5774385090329064,0.56153153397609,0.5596369069925986,0.5591665545550879,0.545296325374121,0.5369789079427774,0.5219489174360996,0.5209636043292054,0.5276311723208029,0.5472846180044373,0.5595373771954901,0.5596361901266289,0.5596361901266289,0.5597719667686243,0.5699115463043016,0.5789291846469329,0.5755384145158331,0.5664455398273187,0.5786750597841883,0.5789837665710431,0.579012416660146,0.5869813245949076,0.6075079997665784,0.6337776439625391,0.6526823800910915,0.6476776796779466,0.6136957915501742,0.5883783109198841,0.5636905946876687,0.5718247605464617,0.5623036482717838,0.5596371302787198,0.55791676827599,0.5209173843494517,0.4767758113524212,0.4466150176742212,0.4303389554070578,0.44975997050080263,0.4870837634628731,0.5396102264082026,0.5927421113023312,0.6364609120858451
0,1,2,3,4,5,6,7,8,9,10,11,12,13,14,15,16,17,18,19,20,21,22,23,24,25,26,27,28,29,30,31,32,33,34,35,36,37,38,39,40,41,42,43,44,45,46,47,48,49,50,51,52,53,54,55,56,57,58,59,60,61,62,63,64,65,66,67,68,69,70,71,72,73,74,75,76,77,78,79,80,81,82,83,84,85,86,87,88,89,90,91,92,93,94,95,96,97,98,99,100,101,102,103,104,105,106,107,108,109,110,111,112,113,114,115,116,117,118,119,120,121,122,123,124,125,126,127,128,129,130,131,132,133,134,135,136,137,138,139,140,141,142,143,144,145,146,147,148,149,150,151,152,153,154,155,156,157,158,159,160,161,162,163,164,165,166,167,168,169,170,171,172,173,174,175,176,177,178,179,180,181,182,183,184,185,186,187,188,189,190,191,192,193,194,195,196,197,198,199,200,201,202,203,204,205,206,207,208,209,210,211,212,213,214,215,216,217,218,219,220,221,222,223,224,225,226,227,228,229,230,231,232,233,234,235,236,237,238,239,240,241,242,243,244,245,246,247,248,249,250,251,252,253,254
0.8504136260552189,0.81656644447422,0.7866425368207342,0.756263052162963,0.7103861984782256,0.6680024476387132,0.6379499952349255,0.6178163108001016,0.6007413517322777,0.5817899456502524,0.5789850986293565,0.5789837665710431,0.5789837665710431,0.5789837665710431,0.578943925365786,0.5707961174462057,0.5612225783082447,0.576500012292096,0.5749581494751292,0.5603359237842405,0.5667306288858911,0.5787585558681525,0.5664852905801587,0.5596595098682604,0.5596361901266289,0.5596485160266016,0.5644618312769736,0.5784796915886878,0.5789837665710431,0.5781245933024182,0.5644777202124747,0.5661515215052768,0.5675280389370485,0.5795494114612434,0.5942682317461503,0.6033757717730754,0.6375224297475865,0.6470843377178488,0.6271554426145505,0.5982433166696643,0.5754043466735466,0.5601782459232756,0.5596361901266289,0.5596229440134364,0.552988226911828,0.5198094948700218,0.47990783577733254,0.44878353419443995,0.44521262539014295,0.4743044713314446,0.5203516004825901,0.573229091148876,0.6201929172931955,0.6485704293304235,0.5996710499682023,0.5418000740941289,0.49766598398394546,0.4399570850121548,0.39411185521444425,0.3391244601326049,0.28900572625528076,0.23867521811279646,0.18991192957111158,0.13933216395890868,0.09703991765672759,0.057075011788910945,0.017495564828704513,0.0,0.026544633928931916,0.07010411294209984,0.11374097433794716,0.1588745798590101,0.21183207230984946,0.26466567762519144,0.3123159439804728,0.3715143595162975,0.4168528429117262,0.4715419734766546,0.5163250652088398,0.5618910745339396,0.6005296881844231,0.6292981385613796,0.638805971575231,0.6547600843288008,0.6635918383672914,0.6781196362821826,0.6947646225369484,0.7137830086342785,0.737111991516012,0.7629745788717357,0.7847637014550823,0.8154486443842837,0.8489294237687055,0.8756401488097869,0.9134532644592346,0.9491014898838235,0.9809786580253399,1.0,0.9888107610424215,0.9511629171735971,0.9198548657507506,0.8844155182221876,0.8590780733023409,0.8199991174356365,0.7808916122911098,0.7509149813945393,0.7219886607593673,0.7003980741350873,0.67536709349912,0.6445690020287818,0.6381638978000979,0.652700458277903,0.6414389293958447,0.6431018925068979,0.67064940514555,0.6934564951179842,0.6901568325998602,0.6786233170342895,0.6941213698668536,0.6883280946438965,0.6769796518380122,0.6917461941579677,0.6944484719149431,0.679934120457645,0.6757306432259171,0.675745634828179,0.6826003517544201,0.6830816368762656,0.6757483000019144,0.6757216487931137,0.67534385165041,0.6618741999334392,0.6563398148821453,0.6474625998670049,0.6371898136191709,0.6432018620450934,0.6581102882810446,0.6837048145641429,0.7132668984275878,0.7082506035277802,0.68198715801257,0.6598602476066402,0.6385163055007284,0.633937809020924,0.6187977326145657,0.6176070071702258,0.6062842965071371,0.566154375144329,0.5240478777034703,0.4964288183075882,0.4857542638650303,0.5144589098042216,0.5604633605108544,0.6108946001475091,0.6633408212062579,0.6474175862596656,0.6037751954506265,0.5476513482857515,0.49903141872009327,0.4471687969215403,0.39310584117141145,0.3465162098498791,0.28919648977793644,0.24539601385095278,0.2009681768822995,0.14604029911556848,0.08694892369961149,0.04639717842150137,0.020967813340941,0.020096899825969405,0.04699719348972131,0.09891259216865977,0.1432522018110589,0.19830786840077463,0.24344297357046285,0.2977065761880202,0.3436337453298641,0.397105283975268,0.44384737084833903,0.5013637591762099,0.5446948196319199,0.5886495580703457,0.6254444534187455,0.6463816833592517,0.6662614966589553,0.6756644629625965,0.6759362848865611,0.6876238048022874,0.7011750750327441,0.7207584696194713,0.7357377447130249,0.7600903741785747,0.7900629267020718,0.8200534348188642,0.8565655673065069,0.8963304784766768,0.925391529759755,0.9431947822352797,0.9303739233804715,0.9062873014638502,0.8681067973134149,0.8374924210913455,0.7955145286431033,0.7581779390314023,0.7203096310226096,0.6888393633615424,0.6532306248129389,0.6193445365468517,0.5901016092467772,0.5751982745202051,0.5659424550954264,0.5622096799641882,0.5670994589775695,0.5774385090329064,0.56153153397609,0.5596369069925986,0.5591665545550879,0.545296325374121,0.5369789079427774,0.5219489174360996,0.5209636043292054,0.5276311723208029,0.5472846180044373,0.5595373771954901,0.5596361901266289,0.5596361901266289,0.5597719667686243,0.5699115463043016,0.5789291846469329,0.5755384145158331,0.5664455398273187,0.5786750597841883,0.5789837665710431,0.579012416660146,0.5869813245949076,0.6075079997665784,0.6337776439625391,0.6526823800910915,0.6476776796779466,0.6136957915501742,0.5883783109198841,0.5636905946876687,0.5718247605464617,0.5623036482717838,0.5596371302787198,0.55791676827599,0.5209173843494517,0.4767758113524212,0.4466150176742212,0.4303389554070578,0.44975997050080263,0.4870837634628731,0.5396102264082026,0.5927421113023312,0.6364609120858451
0,1,2,3,4,5,6,7,8,9,10,11,12,13,14,15,16,17,18,19,20,21,22,23,24,25,26,27,28,29,30,31,32,33,34,35,36,37,38,39,40,41,42,43,44,45,46,47,48,49,50,51,52,53,54,55,56,57,58,59,60,61,62,63,64,65,66,67,68,69,70,71,72,73,74,75,76,77,78,79,80,81,82,83,84,85,86,87,88,89,90,91,92,93,94,95,96,97,98,99,100,101,102,103,104,105,106,107,108,109,110,111,112,113,114,115,116,117,118,119,120,121,122,123,124,125,126,127,128,129,130,131,132,133,134,135,136,137,138,139,140,141,142,143,144,145,146,147,148,149,150,151,152,153,154,155,156,157,158,159,160,161,162,163,164,165,166,167,168,169,170,171,172,173,174,175,176,177,178,179,180,181,182,183,184,185,186,187,188,189,190,191,192,193,194,195,196,197,198,199,200,201,202,203,204,205,206,207,208,209,210,211,212,213,214,215,216,217,218,219,220,221,222,223,224,225,226,227,228,229,230,231,232,233,234,235,236,237,238,239,240,241,242,243,244,245,246,247,248,249,250,251,252,253,254
0.21806791412131243,0.2254999763330603,0.24380837137411104,0.2630648888577114,0.28548186186270197,0.307798368262846,0.32532822302009823,0.3420565112479155,0.33212272232961615,0.30556327955605456,0.27159565343146275,0.23812675493869806,0.2203776824421233,0.22968577689013614,0.23089286868354453,0.23089314956889595,0.23089314956889595,0.23089358717233166,0.2319674165360519,0.23912923494689542,0.23120120775760267,0.23086394085824358,0.22616554721506743,0.2181452496169638,0.21800384928505157,0.21800384928505157,0.21800384928505157,0.21800384928505157,0.21800384928505157,0.21842471124610352,0.22886073447011324,0.23949344674559692,0.23432705339878535,0.24342181588474476,0.25007866859121064,0.2611883976960021,0.2789737287579199,0.2823396513118013,0.2736805692708222,0.25554478472985354,0.2331017306157115,0.20321401280918616,0.17322511690479914,0.1385648221644078,0.10494136870716364,0.07499659655302504,0.04961973355965421,0.02716503004214421,0.005829707323846911,0.002395846585036221,0.016632734268934968,0.02806266487270581,0.045941635650025736,0.05059207399732002,0.05906621388145439,0.06650004643814,0.08112354900912866,0.10670078493237911,0.13659578935285088,0.16656745751140178,0.20331407686249348,0.23786075152379604,0.2814257451507727,0.31693610342336775,0.3586540786018628,0.40340548274687427,0.44048494888696155,0.4804484985631867,0.5252727388276699,0.5643620593071481,0.6022493401290618,0.6470659099102032,0.6919319003435569,0.7312893619861831,0.7689269726506742,0.8137165663743828,0.8575447321588836,0.8920003286158935,0.9352877319172799,0.9627179098814884,0.9475099325959317,0.9138377354954503,0.8753766221214079,0.8307296908707329,0.7938350603725768,0.7536528542432173,0.7087829124457872,0.6638978196926351,0.6190128976048226,0.5748578223777341,0.5400695798918087,0.4972458912611364,0.45236165621071756,0.40747656345756456,0.36259161511354643,0.3182773432198336,0.2833707047501095,0.24083267612751236,0.20182782571859903,0.20689880575869335,0.2183849633088073,0.23246810318427835,0.24899390607361527,0.26016385120441576,0.2752964376356224,0.3003210767021254,0.3191860405919966,0.3332329900357167,0.3242281637323612,0.29809583199100675,0.2659374083538899,0.2356567016193476,0.21892024763992213,0.21816058448271303,0.2264107733022671,0.2265967311637267,0.21817110785658533,0.21800384928505157,0.21800384928505157,0.21800384928505157,0.2178849546078383,0.21044338633241955,0.2092520668602993,0.2174612930524935,0.2087499715025496,0.20483917884641345,0.1971517781664609,0.20362804399990564,0.19606917947917957,0.1946039929593275,0.20221121875950754,0.18333925551877828,0.1899660399895664,0.19231344971071662,0.19942937384930515,0.20506863530214225,0.2061160387584806,0.21659183893739842,0.2250976670306275,0.23993581330421554,0.25387987882692586,0.2503027825954587,0.23413963649223657,0.21195212905274108,0.18441525350171295,0.15512418882631396,0.12888334258557999,0.09664175036115541,0.06063360773631343,0.03250129906329202,0.012718855566367981,0.0,0.004858682530734626,0.015644127494162108,0.024403110165457154,0.025832057042347145,0.036320507470110286,0.041270426552756145,0.058672552999861516,0.08754145431398053,0.11253717216111969,0.1425028581307668,0.17957633484871982,0.21434212996532542,0.2534350118807951,0.2907009705488486,0.33494929422129216,0.37008518122359435,0.4123333018314077,0.4570554595121905,0.4936340266871886,0.5341182583755004,0.5789800766461308,0.6238644867379244,0.6671506985049374,0.7017416143511968,0.7456313618005792,0.7905156274832388,0.8339868485047894,0.8684988336951829,0.9122509472199587,0.9512517255312019,0.9877356856908412,1.0,0.9747809758719375,0.9313466674973143,0.8951598720958867,0.8582147630973265,0.8325986334572062,0.7902412272231967,0.7512154430654547,0.7246663794700741,0.6817493516458843,0.6464453737681333,0.6044510050954517,0.5595703068069282,0.5146852140537774,0.4698001869411401,0.42528630829563774,0.3897464986264332,0.3480277731783441,0.3031490505718586,0.2583124527707792,0.21935632487026568,0.19770396936602452,0.20616805681375538,0.21771611090949294,0.23043445095662118,0.24532038447746807,0.2604557606062188,0.2813914759752132,0.3038103772646288,0.31985508691043174,0.3205833606599895,0.3022997371438265,0.26931580204835326,0.2385655820908199,0.21942593793922693,0.21800445026043613,0.21800384928505157,0.21800384928505157,0.21800384928505157,0.21800384928505157,0.21800384928505157,0.21797983302401258,0.21354178038687976,0.20527103330623175,0.20511454900120674,0.20511454900120674,0.20511454900120674,0.20511454900120674,0.20512794379511856,0.20946427731369566,0.21778495297595102,0.2183127807403924,0.22760760385173517,0.23222986175073324,0.2389880967048974,0.2389085220845497,0.2444469762119299,0.2558708792839548,0.2689810803388162,0.2803719922443415,0.27897477250574987,0.2647618701294778,0.2463972241146304,0.22023940236804096,0.1915075119657157,0.16168362701300776,0.1317371442579196,0.10180124603961316,0.0783679242221349,0.058762809202605126,0.029443778509584462,0.012271666960168348
0,1,2,3,4,5,6,7,8,9,10,11,12,13,14,15,16,17,18,19,20,21,22,23,24,25,26,27,28,29,30,31,32,33,34,35,36,37,38,39,40,41,42,43,44,45,46,47,48,49,50,51,52,53,54,55,56,57,58,59,60,61,62,63,64,65,66,67,68,69,70,71,72,73,74,75,76,77,78,79,80,81,82,83,84,85,86,87,88,89,90,91,92,93,94,95,96,97,98,99,100,101,102,103,104,105,106,107,108,109,110,111,112,113,114,115,116,117,118,119,120,121,122,123,124,125,126,127,128,129,130,131,132,133,134,135,136,137,138,139,140,141,142,143,144,145,146,147,148,149,150,151,152,153,154,155,156,157,158,159,160,161,162,163,164,165,166,167,168,169,170,171,172,173,174,175,176,177,178,179,180,181,182,183,184,185,186,187,188,189,190,191,192,193,194,195,196,197,198,199,200,201,202,203,204,205,206,207,208,209,210,211,212,213,214,215,216,217,218,219,220,221,222,223,224,225,226,227,228,229,230,231,232,233,234,235,236,237,238,239,240,241,242,243,244,245,246,247,248,249,250,251,252,253,254
0.34738435699562586,0.2936742274183026,0.2337160328256691,0.17411978371744263,0.12611662074330177,0.07398432792687526,0.07800043887323271,0.12148853697846551,0.13437216424213227,0.13509194024619386,0.14787696287188679,0.15755864844437806,0.17250168946019606,0.18561529860645454,0.17997832380880485,0.17501894084431147,0.16952175273182046,0.17796985243314367,0.16443632516427042,0.1250781626756443,0.09406337444580748,0.09610185684630634,0.11587664186171365,0.13275672071370304,0.12820499759596338,0.11734544783068257,0.11716290763129855,0.11722812462863441,0.12559028132367134,0.13625679871223717,0.15043227763083866,0.15689938661316916,0.168979123187869,0.16309055336598677,0.15194698324061306,0.14100768417608478,0.12648557990417375,0.10655255784062145,0.08717478552730773,0.07751908099340987,0.06523184818074856,0.06779795575086123,0.08141049224760044,0.0888635064698775,0.09953333513378126,0.1056702138452561,0.11788103417655904,0.13377624770535634,0.16230658186787306,0.21224191612230214,0.25928609594819996,0.3055265191156673,0.3556533199544796,0.4037719218612903,0.44908768587425296,0.4941520223112761,0.544493827298969,0.5926422777868288,0.6508525076471483,0.6952341418703538,0.7299296883514459,0.7684400741835917,0.8185169502545797,0.8655402317768801,0.9239975493942976,0.9684655364730093,1.0000000000000004,0.9956956783093887,0.9437373522121257,0.8947999595176452,0.8409494003963549,0.7810000782385673,0.7218930580855489,0.6754588669038482,0.6185143553391992,0.5585484271690802,0.4985814660620518,0.4388769956233478,0.389866948577855,0.33607924103844455,0.27612999416502193,0.21616303305799356,0.15624582259239883,0.10335753495783706,0.07998127178816361,0.10859450621041189,0.11720286728640117,0.12636874109721186,0.13678346156078947,0.1507109762957266,0.1519955269133768,0.15292883946225722,0.16675951358009078,0.1694049990476323,0.16650387956300428,0.1343038802339902,0.09669851952934261,0.08919769613176332,0.11274592733765854,0.11898135320077374,0.13137785590398732,0.12371075713725821,0.13274506699827526,0.11914147893825833,0.11779853874849833,0.13087604504823647,0.13457911535125344,0.1383411415039819,0.15147393749099525,0.15949784497130626,0.15712385702751863,0.1519712078813682,0.14556733672170674,0.12614324331111249,0.11132512044907283,0.09195521903397896,0.07666773070748567,0.04962864874910622,0.030948825818123638,0.026980945727048677,0.0,0.004815571928980855,0.012602823627571702,0.012665434312770785,0.014773401201050973,0.03255745256398468,0.06330195228165758,0.10570741926969518,0.1501438046954231,0.19527107230837393,0.24054088909716054,0.28605551174956645,0.326483124149648,0.3773137861075897,0.42459972358306874,0.47990797669878615,0.527616797538514,0.5827374186168992,0.6398649723130347,0.6860047820578292,0.7336444512254028,0.7837753263936049,0.8224672808906051,0.8255437138934814,0.7908587230985846,0.7339299584395502,0.6880365031456965,0.6298525328685836,0.5703896433271769,0.523169675649001,0.46736088890772765,0.40740163339931534,0.34743467229228564,0.2875627213917018,0.23699525641690888,0.18490643883204072,0.12498329229173066,0.06560610725046301,0.040786145367745164,0.08551717611061171,0.09656504604423066,0.09136378269281265,0.11012239099290566,0.12023198079163988,0.13844768495526827,0.15130710277245374,0.14099857405934912,0.14600206999354226,0.15190504997708754,0.14355035589848875,0.11494307024574191,0.0850629252861177,0.07330238767855679,0.08705044507750159,0.11116531920704231,0.11713850309260243,0.11713977297659106,0.11166827512621191,0.09997475074467,0.09974653510021403,0.09974653510021403,0.09974653510021403,0.09996848156593474,0.1115477003018226,0.1171551155726136,0.12329676939382139,0.13430627876060974,0.1315822690196642,0.11799464069636345,0.11459810108416724,0.0962409591569422,0.07635885860896341,0.06115104987753828,0.04805883105440989,0.04386972168980785,0.02039027263991544,0.012685694617080578,0.012806015183913111,0.02287939137669115,0.030028997330258544,0.03160732270702349,0.05726121815784513,0.07525489004856922,0.11517280011393494,0.1605366177098002,0.2085688346510457,0.25411335742291685,0.29963790308818217,0.3444578128623199,0.3904372096166848,0.4469802351211585,0.4929956822161867,0.5408406250756599,0.5909146692307203,0.6373528131779396,0.6844664313094433,0.7396207572739062,0.7967210607397455,0.8428514520931873,0.8806539886877767,0.8701087835235457,0.8250009676014045,0.77529582364834,0.7225137414190081,0.6625719219932229,0.6050656041212088,0.5590152396846717,0.5006100912463718,0.4598238064875111,0.4147400523465383,0.35825407759731576,0.3116983961970048,0.25249836712284335,0.1925346869888651,0.1350050975750281,0.09130221712684605,0.08397489461482577,0.11131228714288177,0.1305696678063457,0.13462614725944277,0.14286538091372014,0.1624053040856448,0.16949169563978073,0.17931121396294447,0.18677138820873207,0.18675549186503648,0.17471063139246867,0.13609941029920325,0.10466610433321533,0.10877948885896727,0.13341716866775943,0.1510934610220347,0.16577950544249065,0.15585052709638925,0.15200149227538962
0,1,2,3,4,5,6,7,8,9,10,11,12,13,14,15,16,17,18,19,20,21,22,23,24,25,26,27,28,29,30,31,32,33,34,35,36,37,38,39,40,41,42,43,44,45,46,47,48,49,50,51,52,53,54,55,56,57,58,59,60,61,62,63,64,65,66,67,68,69,70,71,72,73,74,75,76,77,78,79,80,81,82,83,84,85,86,87,88,89,90,91,92,93,94,95,96,97,98,99,100,101,102,103,104,105,106,107,108,109,110,111,112,113,114,115,116,117,118,119,120,121,122,123,124,125,126,127,128,129,130,131,132,133,134,135,136,137,138,139,140,141,142,143,144,145,146,147,148,149,150,151,152,153,154,155,156,157,158,159,160,161,162,163,164,165,166,167,168,169,170,171,172,173,174,175,176,177,178,179,180,181,182,183,184,185,186,187,188,189,190,191,192,193,194,195,196,197,198,199,200,201,202,203,204,205,206,207,208,209,210,211,212,213,214,215,216,217,218,219,220,221,222,223,224,225,226,227,228,229,230,231,232,233,234,235,236,237,238,239,240,241,242,243,244,245,246,247,248,249,250,251,252,253,254
0.3748721785779514,0.4003338006048116,0.43842117522965296,0.47421430546135745,0.5114625808763149,0.545199406783933,0.5480048450768473,0.5273472983467373,0.47915969363544164,0.4177040335995663,0.3786787282969355,0.3717853833992928,0.37177186059443823,0.37177186059443823,0.3717903601624295,0.37962225483695544,0.4010443771231298,0.4278641019315996,0.4678233114028947,0.5210849135893918,0.5654174441425566,0.6082328804763728,0.6507800666236436,0.6726237723644974,0.6459359773150428,0.6107060913565796,0.560157573791261,0.5170694198895136,0.46651260564891306,0.4188885782749763,0.3760483377787436,0.3347367550084739,0.3023599970591233,0.2612381972780309,0.23134775612297798,0.21074258167290072,0.1949410643913545,0.17960146184620784,0.19359703921685334,0.21754979180306933,0.1946665407849899,0.19188462690022146,0.2382199135026264,0.31729439373247814,0.3853043971332495,0.4637746768573363,0.5461214001575723,0.6116671020555504,0.6950807569555062,0.7620801651047735,0.7961697434528512,0.7592364189974452,0.6825682023313364,0.6175331071252561,0.534093443006828,0.4569955094333391,0.3924074671780531,0.3288887087223413,0.2692254147728379,0.2466771672010566,0.2653514595652844,0.270835668124783,0.28204735493444755,0.29774387036775973,0.31939944429093803,0.3550371015918845,0.4017845242887006,0.44445285457970485,0.471446865128593,0.46035752380488937,0.42919671410942684,0.37596181816928986,0.32116154547800857,0.2969342736592031,0.31256673295503123,0.3212312378356552,0.32333632878446217,0.3449831337198974,0.366739809515658,0.3804684989159872,0.4085364575248205,0.4372858789072138,0.46981552489317036,0.5311516964086227,0.5814695976658788,0.6264486874802078,0.6484604744175799,0.649457891754988,0.6406108800968404,0.5940314478922124,0.5461217482152136,0.5059642328442413,0.47153141935931675,0.4189346790363544,0.385782384270132,0.34946009262855515,0.3150570356111366,0.2911053059959974,0.27175100168782507,0.2711379026059797,0.2885806232082029,0.29600290202109747,0.29977118303181083,0.3448862392487655,0.4165248137776203,0.4848195635032173,0.562792952800212,0.6455371091252449,0.7108970190507984,0.7906475619964688,0.8381185220567238,0.887720967292247,0.886220530268492,0.8289509091979417,0.7486514650332623,0.6818124919170572,0.6046319821416706,0.539712942167605,0.4696615828838677,0.39864709115934005,0.3406857165723016,0.33377090483508454,0.3464248410447084,0.3508124687061862,0.3704791592590153,0.38079722931984694,0.41005926040952456,0.44583362091821854,0.4846430251717857,0.5279432997428728,0.567075777076977,0.5969050518039403,0.5953472109585514,0.5601303438189618,0.5071613661977841,0.45133044262946864,0.42343547845184215,0.4290879465777353,0.44692541562681765,0.4490637663385888,0.469434282382478,0.48388241734348014,0.5047278950580507,0.5403644801392664,0.5736507594463811,0.6218721005131052,0.6715436089753135,0.7126171971590161,0.7251549940983226,0.7225696879048353,0.6916360662074394,0.6548729358042822,0.6053380025370343,0.5624704568410746,0.5250396101165782,0.48939665835820634,0.44696572588531414,0.4199311043032852,0.38725036426817194,0.35748428221154693,0.3465690810592035,0.35031554343347615,0.3759796471776964,0.3916823001641454,0.35900012455124397,0.3679910493053402,0.4274737453478208,0.510271679218846,0.5880843906296302,0.6568072165584127,0.7419713578810763,0.8242397119557818,0.8898132800558765,0.9656895450632383,1.0,0.9735234653053633,0.9032839868654463,0.8309390906943781,0.7454376220772625,0.6601756639348828,0.5904623090898422,0.5150457177156911,0.44957962387837025,0.3901768830830301,0.38942179819013667,0.40289602579493256,0.42155277674426994,0.4224504151208164,0.436698328645301,0.4348567314244445,0.4226171864410784,0.4411075604136041,0.48874010509199906,0.4945681436110778,0.460177036637786,0.40750028815548056,0.3512276747772791,0.3023286346622438,0.268143445202111,0.23519188795858526,0.21272248635777835,0.19535655124330553,0.19917723536830012,0.21007922137079849,0.1953869739506029,0.20640465111969597,0.20232611799687028,0.20620337856757942,0.2420093172695026,0.29225998368860395,0.3336654604914955,0.37483534050871636,0.4236005182267686,0.4471029005376268,0.4362956692692297,0.405570804178252,0.3563106328263661,0.3128878164580451,0.265915970705791,0.22307731022324973,0.18026111426404734,0.13744338942592726,0.09486823504179487,0.061356684314413545,0.025627115443395798,0.011892875512655277,0.0,0.018439666808100164,0.055608008639193685,0.10896392806449917,0.11890888355758866,0.11744112678582797,0.09762915795796179,0.04608658363024576,0.004850428218103886,0.020625630670370043,0.08126285053561144,0.14623049943934552,0.22860635921609695,0.31394724855638056,0.382722132173952,0.4603236166367557,0.5454383601760346,0.6132578435968616,0.6850604626052155,0.7203445322826774,0.6770760263788098,0.5965082646813,0.5307934808049133,0.44651556082379695,0.3727457456339973,0.30284934051584145,0.23808214025136998,0.16775579622909564,0.10685628560977678
0,1,2,3,4,5,6,7,8,9,10,11,12,13,14,15,16,17,18,19,20,21,22,23,24,25,26,27,28,29,30,31,32,33,34,35,36,37,38,39,40,41,42,43,44,45,46,47,48,49,50,51,52,53,54,55,56,57,58,59,60,61,62,63,64,65,66,67,68,69,70,71,72,73,74,75,76,77,78,79,80,81,82,83,84,85,86,87,88,89,90,91,92,93,94,95,96,97,98,99,100,101,102,103,104,105,106,107,108,109,110,111,112,113,114,115,116,117,118,119,120,121,122,123,124,125,126,127,128,129,130,131,132,133,134,135,136,137,138,139,140,141,142,143,144,145,146,147,148,149,150,151,152,153,154,155,156,157,158,159,160,161,162,163,164,165,166,167,168,169,170,171,172,173,174,175,176,177,178,179,180,181,182,183,184,185,186,187,188,189,190,191,192,193,194,195,196,197,198,199,200,201,202,203,204,205,206,207,208,209,210,211,212,213,214,215,216,217,218,219,220,221,222,223,224,225,226,227,228,229,230,231,232,233,234,235,236,237,238,239,240,241,242,243,244,245,246,247,248,249,250,251,252,253,254
0.7401239845956322,0.7957252044801217,0.8549127645274424,0.903000559250509,0.9583874942613395,0.9990296654360407,1.0,0.9544919499352793,0.9042915001214,0.8491498192927587,0.8000775424378723,0.7572822120188007,0.7105030893299804,0.6538079771690604,0.6054949505528828,0.5460235733907282,0.4860250742614678,0.431166452534955,0.38109596494449605,0.323136819239791,0.2757386611474213,0.22925923817440141,0.18582304873724054,0.13517879792334586,0.11646531695075568,0.12715484479467998,0.13002572577975968,0.11352311353402733,0.10364799882233822,0.12112776547303028,0.12674884349565296,0.11578419194167777,0.11510498423889803,0.10504191338781066,0.09914245401257116,0.0872080072771042,0.08234472208030397,0.07057992471069463,0.07908080446808308,0.0759102014873152,0.08376037364683597,0.08688069350832883,0.10799283446722274,0.11706215460839964,0.1310996552882746,0.1538347181557813,0.1837062840214081,0.20573320876583345,0.20608748811555833,0.18496295354234515,0.1550121307113117,0.12275392963760945,0.08739005899852037,0.06000937778348714,0.04751853776922177,0.025497033502035915,0.011119946293360439,0.017395037757011345,0.012360232609605948,0.021143042497962394,0.032977703357975674,0.04320327927094736,0.09053384462988623,0.13994695363818987,0.19203130567142468,0.24433414901037676,0.2975235890405479,0.34905415508082305,0.40808508394832765,0.456167942652022,0.5135674330787814,0.573577837445916,0.6292262835129279,0.6786255013401563,0.7382391641106305,0.7970486032949058,0.8449434684243928,0.8956253318366034,0.9146732175426973,0.8950630988441888,0.8519382993084617,0.7951075186811032,0.7470180323334605,0.687827952893119,0.6278060557429295,0.5677839442198915,0.5077618862900657,0.44811380486821273,0.3986072640448497,0.34332066267068395,0.2932806834808952,0.24424754646135405,0.1990561618260691,0.14966821272402653,0.10847173965700385,0.09999464633955135,0.09985764137232467,0.0914508890992618,0.0648967156590965,0.0710735375138678,0.09261868942212192,0.09986467747953931,0.09993787857203884,0.09993787857203884,0.09993787857203884,0.09985041953692209,0.09259641906444482,0.08460099107213104,0.08357382160598048,0.07138079567918432,0.07735183885708397,0.09218472813087608,0.10351754311829975,0.11841718739908824,0.14169668236479005,0.17188710028527687,0.1978984904783183,0.22025944605435477,0.2204011717329779,0.20183734807682496,0.17733114622119484,0.1512673537617446,0.12129014595248577,0.09127912422140483,0.06135451580378648,0.039606642788863944,0.026328736122956276,0.009374429610898627,0.007458806181893873,0.00913738939024844,0.03084170122885732,0.06785470667940086,0.10900260278759077,0.1631366770849092,0.21113213601884961,0.2687639297543911,0.32878348266522606,0.3883288757996577,0.43689980906744186,0.49344666198707143,0.5531135028550613,0.6026730489101095,0.6581081398245154,0.7178981299104636,0.7684213539998082,0.8166965183820056,0.8378495368447294,0.8177329400275637,0.7759135663577736,0.7237403649751655,0.6735985161776248,0.6138432801208675,0.5542802843457242,0.5050420815053873,0.44918273471499015,0.39016534547067616,0.34246770618239486,0.2903448953786065,0.2397278617783427,0.18204396228140673,0.13478989317683165,0.09564610945481533,0.07101698508881249,0.07555528195864225,0.09587144401535941,0.07924978678839478,0.060736674103871735,0.0783407130492213,0.09756596950962537,0.08777437077609918,0.08452986431727405,0.08452799132857924,0.08713954733791907,0.09905149423824122,0.09341004173582856,0.08464194913519263,0.08199242898137538,0.07152712103593917,0.08651769736903558,0.10056323361460606,0.11424825556160023,0.12472233124391785,0.12784251255146284,0.15107559765632583,0.17561452474157235,0.19569424004591474,0.20669836040751255,0.19303637325090905,0.16739981624084033,0.13742905210977208,0.10749456207849617,0.08211982450185529,0.0551008004951683,0.028040835042240086,0.012741388663745745,0.0018258221238340866,0.0,0.011036344094887074,0.025701009869264713,0.04818603286236556,0.09091648827787813,0.13609758451138765,0.18968778296347688,0.23792225749211848,0.2948808741173856,0.3545021041639096,0.4036954973347848,0.4595423519548296,0.5195442778686261,0.5766963047182889,0.6205026462226435,0.6562289540617345,0.6979829655901071,0.7397285810609566,0.7719608826515398,0.8168406574018339,0.876416983313296,0.9349424880785184,0.9605261472164095,0.9398248309487172,0.8958702349238545,0.8466216317463746,0.7913596520142447,0.7339276845414457,0.6858582437533252,0.6267178050874209,0.5666975367283866,0.5084152937282553,0.46058737542047234,0.40204334317747703,0.34313439869533857,0.29567064858366665,0.2474378505502166,0.19840095541915437,0.15020561117230402,0.10464333621165478,0.07328871554262495,0.0793436278311428,0.08410848314225694,0.06989263017490632,0.04570120510907483,0.061339741984362206,0.06904925306382115,0.06917531470852545,0.07685314163619861,0.09638570498693477,0.11150016620286696,0.10142918330913142,0.09864120892763761,0.08847205531731728,0.09805468825055375,0.08682924007568582,0.08874022964893413,0.10337486787867833,0.11482236494747289
0,1,2,3,4,5,6,7,8,9,10,11,12,13,14,15,16,17,18,19,20,21,22,23,24,25,26,27,28,29,30,31,32,33,34,35,36,37,38,39,40,41,42,43,44,45,46,47,48,49,50,51,52,53,54,55,56,57,58,59,60,61,62,63,64,65,66,67,68,69,70,71,72,73,74,75,76,77,78,79,80,81,82,83,84,85,86,87,88,89,90,91,92,93,94,95,96,97,98,99,100,101,102,103,104,105,106,107,108,109,110,111,112,113,114,115,116,117,118,119,120,121,122,123,124,125,126,127,128,129,130,131,132,133,134,135,136,137,138,139,140,141,142,143,144,145,146,147,148,149,150,151,152,153,154,155,156,157,158,159,160,161,162,163,164,165,166,167,168,169,170,171,172,173,174,175,176,177,178,179,180,181,182,183,184,185,186,187,188,189,190,191,192,193,194,195,196,197,198,199,200,201,202,203,204,205,206,207,208,209,210,211,212,213,214,215,216,217,218,219,220,221,222,223,224,225,226,227,228,229,230,231,232,233,234,235,236,237,238,239,240,241,242,243,244,245,246,247,248,249,250,251,252,253,254
0.7401239845956322,0.7957252044801217,0.8549127645274424,0.903000559250509,0.9583874942613395,0.9990296654360407,1.0,0.9544919499352793,0.9042915001214,0.8491498192927587,0.8000775424378723,0.7572822120188007,0.7105030893299804,0.6538079771690604,0.6054949505528828,0.5460235733907282,0.4860250742614678,0.431166452534955,0.38109596494449605,0.323136819239791,0.2757386611474213,0.22925923817440141,0.18582304873724054,0.13517879792334586,0.11646531695075568,0.12715484479467998,0.13002572577975968,0.11352311353402733,0.10364799882233822,0.12112776547303028,0.12674884349565296,0.11578419194167777,0.11510498423889803,0.10504191338781066,0.09914245401257116,0.0872080072771042,0.08234472208030397,0.07057992471069463,0.07908080446808308,0.0759102014873152,0.08376037364683597,0.08688069350832883,0.10799283446722274,0.11706215460839964,0.1310996552882746,0.1538347181557813,0.1837062840214081,0.20573320876583345,0.20608748811555833,0.18496295354234515,0.1550121307113117,0.12275392963760945,0.08739005899852037,0.06000937778348714,0.04751853776922177,0.025497033502035915,0.011119946293360439,0.017395037757011345,0.012360232609605948,0.021143042497962394,0.032977703357975674,0.04320327927094736,0.09053384462988623,0.13994695363818987,0.19203130567142468,0.24433414901037676,0.2975235890405479,0.34905415508082305,0.40808508394832765,0.456167942652022,0.5135674330787814,0.573577837445916,0.6292262835129279,0.6786255013401563,0.7382391641106305,0.7970486032949058,0.8449434684243928,0.8956253318366034,0.9146732175426973,0.8950630988441888,0.8519382993084617,0.7951075186811032,0.7470180323334605,0.687827952893119,0.6278060557429295,0.5677839442198915,0.5077618862900657,0.44811380486821273,0.3986072640448497,0.34332066267068395,0.2932806834808952,0.24424754646135405,0.1990561618260691,0.14966821272402653,0.10847173965700385,0.09999464633955135,0.09985764137232467,0.0914508890992618,0.0648967156590965,0.0710735375138678,0.09261868942212192,0.09986467747953931,0.09993787857203884,0.09993787857203884,0.09993787857203884,0.09985041953692209,0.09259641906444482,0.08460099107213104,0.08357382160598048,0.07138079567918432,0.07735183885708397,0.09218472813087608,0.10351754311829975,0.11841718739908824,0.14169668236479005,0.17188710028527687,0.1978984904783183,0.22025944605435477,0.2204011717329779,0.20183734807682496,0.17733114622119484,0.1512673537617446,0.12129014595248577,0.09127912422140483,0.06135451580378648,0.039606642788863944,0.026328736122956276,0.009374429610898627,0.007458806181893873,0.00913738939024844,0.03084170122885732,0.06785470667940086,0.10900260278759077,0.1631366770849092,0.21113213601884961,0.2687639297543911,0.32878348266522606,0.3883288757996577,0.43689980906744186,0.49344666198707143,0.5531135028550613,0.6026730489101095,0.6581081398245154,0.7178981299104636,0.7684213539998082,0.8166965183820056,0.8378495368447294,0.8177329400275637,0.7759135663577736,0.7237403649751655,0.6735985161776248,0.6138432801208675,0.5542802843457242,0.5050420815053873,0.44918273471499015,0.39016534547067616,0.34246770618239486,0.2903448953786065,0.2397278617783427,0.18204396228140673,0.13478989317683165,0.09564610945481533,0.07101698508881249,0.07555528195864225,0.09587144401535941,0.07924978678839478,0.060736674103871735,0.0783407130492213,0.09756596950962537,0.08777437077609918,0.08452986431727405,0.08452799132857924,0.08713954733791907,0.09905149423824122,0.09341004173582856,0.08464194913519263,0.08199242898137538,0.07152712103593917,0.08651769736903558,0.10056323361460606,0.11424825556160023,0.12472233124391785,0.12784251255146284,0.15107559765632583,0.17561452474157235,0.19569424004591474,0.20669836040751255,0.19303637325090905,0.16739981624084033,0.13742905210977208,0.10749456207849617,0.08211982450185529,0.0551008004951683,0.028040835042240086,0.012741388663745745,0.0018258221238340866,0.0,0.011036344094887074,0.025701009869264713,0.04818603286236556,0.09091648827787813,0.13609758451138765,0.18968778296347688,0.23792225749211848,0.2948808741173856,0.3545021041639096,0.4036954973347848,0.4595423519548296,0.5195442778686261,0.5766963047182889,0.6205026462226435,0.6562289540617345,0.6979829655901071,0.7397285810609566,0.7719608826515398,0.8168406574018339,0.876416983313296,0.9349424880785184,0.9605261472164095,0.9398248309487172,0.8958702349238545,0.8466216317463746,0.7913596520142447,0.7339276845414457,0.6858582437533252,0.6267178050874209,0.5666975367283866,0.5084152937282553,0.46058737542047234,0.40204334317747703,0.34313439869533857,0.29567064858366665,0.2474378505502166,0.19840095541915437,0.15020561117230402,0.10464333621165478,0.07328871554262495,0.0793436278311428,0.08410848314225694,0.06989263017490632,0.04570120510907483,0.061339741984362206,0.06904925306382115,0.06917531470852545,0.07685314163619861,0.09638570498693477,0.11150016620286696,0.10142918330913142,0.09864120892763761,0.08847205531731728,0.09805468825055375,0.08682924007568582,0.08874022964893413,0.10337486787867833,0.11482236494747289
0,1,2,3,4,5,6,7,8,9,10,11,12,13,14,15,16,17,18,19,20,21,22,23,24,25,26,27,28,29,30,31,32,33,34,35,36,37,38,39,40,41,42,43,44,45,46,47,48,49,50,51,52,53,54,55,56,57,58,59,60,61,62,63,64,65,66,67,68,69,70,71,72,73,74,75,76,77,78,79,80,81,82,83,84,85,86,87,88,89,90,91,92,93,94,95,96,97,98,99,100,101,102,103,104,105,106,107,108,109,110,111,112,113,114,115,116,117,118,119,120,121,122,123,124,125,126,127,128,129,130,131,132,133,134,135,136,137,138,139,140,141,142,143,144,145,146,147,148,149,150,151,152,153,154,155,156,157,158,159,160,161,162,163,164,165,166,167,168,169,170,171,172,173,174,175,176,177,178,179,180,181,182,183,184,185,186,187,188,189,190,191,192,193,194,195,196,197,198,199,200,201,202,203,204,205,206,207,208,209,210,211,212,213,214,215,216,217,218,219,220,221,222,223,224,225,226,227,228,229,230,231,232,233,234,235,236,237,238,239,240,241,242,243,244,245,246,247,248,249,250,251,252,253,254
0.8504136260552189,0.81656644447422,0.7866425368207342,0.756263052162963,0.7103861984782256,0.6680024476387132,0.6379499952349255,0.6178163108001016,0.6007413517322777,0.5817899456502524,0.5789850986293565,0.5789837665710431,0.5789837665710431,0.5789837665710431,0.578943925365786,0.5707961174462057,0.5612225783082447,0.576500012292096,0.5749581494751292,0.5603359237842405,0.5667306288858911,0.5787585558681525,0.5664852905801587,0.5596595098682604,0.5596361901266289,0.5596485160266016,0.5644618312769736,0.5784796915886878,0.5789837665710431,0.5781245933024182,0.5644777202124747,0.5661515215052768,0.5675280389370485,0.5795494114612434,0.5942682317461503,0.6033757717730754,0.6375224297475865,0.6470843377178488,0.6271554426145505,0.5982433166696643,0.5754043466735466,0.5601782459232756,0.5596361901266289,0.5596229440134364,0.552988226911828,0.5198094948700218,0.47990783577733254,0.44878353419443995,0.44521262539014295,0.4743044713314446,0.5203516004825901,0.573229091148876,0.6201929172931955,0.6485704293304235,0.5996710499682023,0.5418000740941289,0.49766598398394546,0.4399570850121548,0.39411185521444425,0.3391244601326049,0.28900572625528076,0.23867521811279646,0.18991192957111158,0.13933216395890868,0.09703991765672759,0.057075011788910945,0.017495564828704513,0.0,0.026544633928931916,0.07010411294209984,0.11374097433794716,0.1588745798590101,0.21183207230984946,0.26466567762519144,0.3123159439804728,0.3715143595162975,0.4168528429117262,0.4715419734766546,0.5163250652088398,0.5618910745339396,0.6005296881844231,0.6292981385613796,0.638805971575231,0.6547600843288008,0.6635918383672914,0.6781196362821826,0.6947646225369484,0.7137830086342785,0.737111991516012,0.7629745788717357,0.7847637014550823,0.8154486443842837,0.8489294237687055,0.8756401488097869,0.9134532644592346,0.9491014898838235,0.9809786580253399,1.0,0.9888107610424215,0.9511629171735971,0.9198548657507506,0.8844155182221876,0.8590780733023409,0.8199991174356365,0.7808916122911098,0.7509149813945393,0.7219886607593673,0.7003980741350873,0.67536709349912,0.6445690020287818,0.6381638978000979,0.652700458277903,0.6414389293958447,0.6431018925068979,0.67064940514555,0.6934564951179842,0.6901568325998602,0.6786233170342895,0.6941213698668536,0.6883280946438965,0.6769796518380122,0.6917461941579677,0.6944484719149431,0.679934120457645,0.6757306432259171,0.675745634828179,0.6826003517544201,0.6830816368762656,0.6757483000019144,0.6757216487931137,0.67534385165041,0.6618741999334392,0.6563398148821453,0.6474625998670049,0.6371898136191709,0.6432018620450934,0.6581102882810446,0.6837048145641429,0.7132668984275878,0.7082506035277802,0.68198715801257,0.6598602476066402,0.6385163055007284,0.633937809020924,0.6187977326145657,0.6176070071702258,0.6062842965071371,0.566154375144329,0.5240478777034703,0.4964288183075882,0.4857542638650303,0.5144589098042216,0.5604633605108544,0.6108946001475091,0.6633408212062579,0.6474175862596656,0.6037751954506265,0.5476513482857515,0.49903141872009327,0.4471687969215403,0.39310584117141145,0.3465162098498791,0.28919648977793644,0.24539601385095278,0.2009681768822995,0.14604029911556848,0.08694892369961149,0.04639717842150137,0.020967813340941,0.020096899825969405,0.04699719348972131,0.09891259216865977,0.1432522018110589,0.19830786840077463,0.24344297357046285,0.2977065761880202,0.3436337453298641,0.397105283975268,0.44384737084833903,0.5013637591762099,0.5446948196319199,0.5886495580703457,0.6254444534187455,0.6463816833592517,0.6662614966589553,0.6756644629625965,0.6759362848865611,0.6876238048022874,0.7011750750327441,0.7207584696194713,0.7357377447130249,0.7600903741785747,0.7900629267020718,0.8200534348188642,0.8565655673065069,0.8963304784766768,0.925391529759755,0.9431947822352797,0.9303739233804715,0.9062873014638502,0.8681067973134149,0.8374924210913455,0.7955145286431033,0.7581779390314023,0.7203096310226096,0.6888393633615424,0.6532306248129389,0.6193445365468517,0.5901016092467772,0.5751982745202051,0.5659424550954264,0.5622096799641882,0.5670994589775695,0.5774385090329064,0.56153153397609,0.5596369069925986,0.5591665545550879,0.545296325374121,0.5369789079427774,0.5219489174360996,0.5209636043292054,0.5276311723208029,0.5472846180044373,0.5595373771954901,0.5596361901266289,0.5596361901266289,0.5597719667686243,0.5699115463043016,0.5789291846469329,0.5755384145158331,0.5664455398273187,0.5786750597841883,0.5789837665710431,0.579012416660146,0.5869813245949076,0.6075079997665784,0.6337776439625391,0.6526823800910915,0.6476776796779466,0.6136957915501742,0.5883783109198841,0.5636905946876687,0.5718247605464617,0.5623036482717838,0.5596371302787198,0.55791676827599,0.5209173843494517,0.4767758113524212,0.4466150176742212,0.4303389554070578,0.44975997050080263,0.4870837634628731,0.5396102264082026,0.5927421113023312,0.6364609120858451
0,1,2,3,4,5,6,7,8,9,10,11,12,13,14,15,16,17,18,19,20,21,22,23,24,25,26,27,28,29,30,31,32,33,34,35,36,37,38,39,40,41,42,43,44,45,46,47,48,49,50,51,52,53,54,55,56,57,58,59,60,61,62,63,64,65,66,67,68,69,70,71,72,73,74,75,76,77,78,79,80,81,82,83,84,85,86,87,88,89,90,91,92,93,94,95,96,97,98,99,100,101,102,103,104,105,106,107,108,109,110,111,112,113,114,115,116,117,118,119,120,121,122,123,124,125,126,127,128,129,130,131,132,133,134,135,136,137,138,139,140,141,142,143,144,145,146,147,148,149,150,151,152,153,154,155,156,157,158,159,160,161,162,163,164,165,166,167,168,169,170,171,172,173,174,175,176,177,178,179,180,181,182,183,184,185,186,187,188,189,190,191,192,193,194,195,196,197,198,199,200,201,202,203,204,205,206,207,208,209,210,211,212,213,214,215,216,217,218,219,220,221,222,223,224,225,226,227,228,229,230,231,232,233,234,235,236,237,238,239,240,241,242,243,244,245,246,247,248,249,250,251,252,253,254
0.8504136260552189,0.81656644447422,0.7866425368207342,0.756263052162963,0.7103861984782256,0.6680024476387132,0.6379499952349255,0.6178163108001016,0.6007413517322777,0.5817899456502524,0.5789850986293565,0.5789837665710431,0.5789837665710431,0.5789837665710431,0.578943925365786,0.5707961174462057,0.5612225783082447,0.576500012292096,0.5749581494751292,0.5603359237842405,0.5667306288858911,0.5787585558681525,0.5664852905801587,0.5596595098682604,0.5596361901266289,0.5596485160266016,0.5644618312769736,0.5784796915886878,0.5789837665710431,0.5781245933024182,0.5644777202124747,0.5661515215052768,0.5675280389370485,0.5795494114612434,0.5942682317461503,0.6033757717730754,0.6375224297475865,0.6470843377178488,0.6271554426145505,0.5982433166696643,0.5754043466735466,0.5601782459232756,0.5596361901266289,0.5596229440134364,0.552988226911828,0.5198094948700218,0.47990783577733254,0.44878353419443995,0.44521262539014295,0.4743044713314446,0.5203516004825901,0.573229091148876,0.6201929172931955,0.6485704293304235,0.5996710499682023,0.5418000740941289,0.49766598398394546,0.4399570850121548,0.39411185521444425,0.3391244601326049,0.28900572625528076,0.23867521811279646,0.18991192957111158,0.13933216395890868,0.09703991765672759,0.057075011788910945,0.017495564828704513,0.0,0.026544633928931916,0.07010411294209984,0.11374097433794716,0.1588745798590101,0.21183207230984946,0.26466567762519144,0.3123159439804728,0.3715143595162975,0.4168528429117262,0.4715419734766546,0.5163250652088398,0.5618910745339396,0.6005296881844231,0.6292981385613796,0.638805971575231,0.6547600843288008,0.6635918383672914,0.6781196362821826,0.6947646225369484,0.7137830086342785,0.737111991516012,0.7629745788717357,0.7847637014550823,0.8154486443842837,0.8489294237687055,0.8756401488097869,0.9134532644592346,0.9491014898838235,0.9809786580253399,1.0,0.9888107610424215,0.9511629171735971,0.9198548657507506,0.8844155182221876,0.8590780733023409,0.8199991174356365,0.7808916122911098,0.7509149813945393,0.7219886607593673,0.7003980741350873,0.67536709349912,0.6445690020287818,0.6381638978000979,0.652700458277903,0.6414389293958447,0.6431018925068979,0.67064940514555,0.6934564951179842,0.6901568325998602,0.6786233170342895,0.6941213698668536,0.6883280946438965,0.6769796518380122,0.6917461941579677,0.6944484719149431,0.679934120457645,0.6757306432259171,0.675745634828179,0.6826003517544201,0.6830816368762656,0.6757483000019144,0.6757216487931137,0.67534385165041,0.6618741999334392,0.6563398148821453,0.6474625998670049,0.6371898136191709,0.6432018620450934,0.6581102882810446,0.6837048145641429,0.7132668984275878,0.7082506035277802,0.68198715801257,0.6598602476066402,0.6385163055007284,0.633937809020924,0.6187977326145657,0.6176070071702258,0.6062842965071371,0.566154375144329,0.5240478777034703,0.4964288183075882,0.4857542638650303,0.5144589098042216,0.5604633605108544,0.6108946001475091,0.6633408212062579,0.6474175862596656,0.6037751954506265,0.5476513482857515,0.49903141872009327,0.4471687969215403,0.39310584117141145,0.3465162098498791,0.28919648977793644,0.24539601385095278,0.2009681768822995,0.14604029911556848,0.08694892369961149,0.04639717842150137,0.020967813340941,0.020096899825969405,0.04699719348972131,0.09891259216865977,0.1432522018110589,0.19830786840077463,0.24344297357046285,0.2977065761880202,0.3436337453298641,0.397105283975268,0.44384737084833903,0.5013637591762099,0.5446948196319199,0.5886495580703457,0.6254444534187455,0.6463816833592517,0.6662614966589553,0.6756644629625965,0.6759362848865611,0.6876238048022874,0.7011750750327441,0.7207584696194713,0.7357377447130249,0.7600903741785747,0.7900629267020718,0.8200534348188642,0.8565655673065069,0.8963304784766768,0.925391529759755,0.9431947822352797,0.9303739233804715,0.9062873014638502,0.8681067973134149,0.8374924210913455,0.7955145286431033,0.7581779390314023,0.7203096310226096,0.6888393633615424,0.6532306248129389,0.6193445365468517,0.5901016092467772,0.5751982745202051,0.5659424550954264,0.5622096799641882,0.5670994589775695,0.5774385090329064,0.56153153397609,0.5596369069925986,0.5591665545550879,0.545296325374121,0.5369789079427774,0.5219489174360996,0.5209636043292054,0.5276311723208029,0.5472846180044373,0.5595373771954901,0.5596361901266289,0.5596361901266289,0.5597719667686243,0.5699115463043016,0.5789291846469329,0.5755384145158331,0.5664455398273187,0.5786750597841883,0.5789837665710431,0.579012416660146,0.5869813245949076,0.6075079997665784,0.6337776439625391,0.6526823800910915,0.6476776796779466,0.6136957915501742,0.5883783109198841,0.5636905946876687,0.5718247605464617,0.5623036482717838,0.5596371302787198,0.55791676827599,0.5209173843494517,0.4767758113524212,0.4466150176742212,0.4303389554070578,0.44975997050080263,0.4870837634628731,0.5396102264082026,0.5927421113023312,0.6364609120858451
0,1,2,3,4,5,6,7,8,9,10,11,12,13,14,15,16,17,18,19,20,21,22,23,24,25,26,27,28,29,30,31,32,33,34,35,36,37,38,39,40,41,42,43,44,45,46,47,48,49,50,51,52,53,54,55,56,57,58,59,60,61,62,63,64,65,66,67,68,69,70,71,72,73,74,75,76,77,78,79,80,81,82,83,84,85,86,87,88,89,90,91,92,93,94,95,96,97,98,99,100,101,102,103,104,105,106,107,108,109,110,111,112,113,114,115,116,117,118,119,120,121,122,123,124,125,126,127,128,129,130,131,132,133,134,135,136,137,138,139,140,141,142,143,144,145,146,147,148,149,150,151,152,153,154,155,156,157,158,159,160,161,162,163,164,165,166,167,168,169,170,171,172,173,174,175,176,177,178,179,180,181,182,183,184,185,186,187,188,189,190,191,192,193,194,195,196,197,198,199,200,201,202,203,204,205,206,207,208,209,210,211,212,213,214,215,216,217,218,219,220,221,222,223,224,225,226,227,228,229,230,231,232,233,234,235,236,237,238,239,240,241,242,243,244,245,246,247,248,249,250,251,252,253,254
0.18198748666917863,0.22198289049768194,0.2565135987087319,0.29797448736862364,0.31430982579043887,0.2959090496379515,0.25989060365218997,0.21824006198032286,0.17656541532731884,0.13648600329098493,0.10136564499750955,0.0747148117907872,0.049566894515894244,0.03460717273254321,0.02896733401093421,0.0437534027719062,0.0887382399299752,0.14354269857851065,0.20107022128952945,0.2583451373810419,0.32277593414371974,0.37856420755221754,0.4424317580533681,0.5071101637379938,0.5627851473013648,0.6268545294671721,0.6926447483596752,0.7535274901901854,0.811487340770396,0.8765344818855088,0.9305706156269924,0.9480905807875253,0.906325236855412,0.8448071719653343,0.7800481506943169,0.7241563810027678,0.6604032461745293,0.5947203830846659,0.535791958021854,0.4759050140277057,0.41015476263562434,0.3444945876185761,0.2859351070844416,0.2256688115335841,0.15990246539865982,0.09414381044352949,0.0414886242840633,0.04087106204265689,0.04554171352455283,0.0441229168342141,0.039705508065706496,0.01813906619936878,0.01670962381826646,0.04728160935080439,0.05463039716139573,0.057891486340679865,0.0766906765200468,0.10417409088639928,0.13744653205902813,0.1777997877289148,0.22058544243425215,0.2617992485853766,0.3063202526577906,0.33317030603161113,0.32647550592508745,0.29366797651347243,0.25228691218932875,0.20760556724015267,0.16291003069022603,0.12338199933678418,0.09025768555086389,0.06565176224464153,0.04886223489284269,0.03162405257146572,0.03122348819440468,0.05245862363321141,0.10335986307838452,0.1587035453072878,0.21793334064213887,0.27588973807485306,0.34007608525224686,0.39577190196387013,0.46010455663712113,0.525710355599581,0.5837199066676528,0.6445715488145676,0.7103386592954619,0.7726172120589441,0.828896037883422,0.8792527683391236,0.9271722973299448,0.9498142926913924,0.9105908726106078,0.8530433774117445,0.787636266569467,0.7292612582996711,0.6688052869704593,0.6030328077595883,0.5387589140710318,0.4830886564437469,0.41860638222824464,0.3527787943413663,0.2876626230673538,0.23162601856455645,0.16834962872029768,0.1025510100291882,0.04382671056649068,0.028699129885941144,0.030019168669627394,0.03371080207850863,0.02587896899250186,0.0014455829890591687,0.008232886091823932,0.04117806078735731,0.054202733702820804,0.055834184259611064,0.0763016891307009,0.10644474834956297,0.14181841710118492,0.1793202020121889,0.2201313808890073,0.26050475086484237,0.3013037687118194,0.3231419028358715,0.3053986150611183,0.270371911653295,0.22750242527086462,0.18574343126685733,0.1376805931053493,0.10186789126135443,0.07162069559239548,0.053831539858272937,0.04257862529504308,0.035486552046359865,0.04012262015726664,0.07035906538308234,0.12246615782531878,0.18204877953760024,0.24072905796128552,0.302765924519353,0.3596401485135625,0.4250111825703575,0.49052002086805224,0.547893380574433,0.6094644703072931,0.6752387389431989,0.7368535281003594,0.7941891151610672,0.8595699375306882,0.9185210470387397,0.9692962505270319,0.965733832776329,0.9140298495031347,0.8493855379503255,0.7933489334475281,0.7300725436032689,0.6642530512014129,0.6004183072313318,0.5446111059553287,0.4798252195786987,0.41400253239726803,0.3504359463651592,0.2944776391318622,0.2295730491348329,0.16388353509966969,0.10510138172088102,0.06132298474404552,0.054690816902113415,0.05192917828882759,0.039477310392989295,0.022312690144086655,0.0,0.027496273329617793,0.056661739094437724,0.0674390865290655,0.07065738251828302,0.09467219391379178,0.12618405916193254,0.16056814645090522,0.20072995837243734,0.23925835992482725,0.27654885230890125,0.3105346174300174,0.3072250059437942,0.2726893463970237,0.23193811494839478,0.19665880674143654,0.1524513691647802,0.11327305122204034,0.08687221373917131,0.06859502423496933,0.051975411439294295,0.03934541351494225,0.03659104746456032,0.06394820607607654,0.11192208570257778,0.16678230250096604,0.2315977248333252,0.2931288005943724,0.3505302966645796,0.4160407249612921,0.47937317471473406,0.5353927398279721,0.6004697003073547,0.6662983468243215,0.7316332374453003,0.788139303773784,0.8507322835352804,0.9150885788665097,0.9689825547966762,1.0,0.9723703696940729,0.910271604931308,0.8531454217499648,0.7944391844328305,0.7480974672815193,0.689115587534153,0.6432289942504488,0.589723248231373,0.5274521288684495,0.46163962624323096,0.3958580388405908,0.33509632764191943,0.27700725265363735,0.21138920253462068,0.14709589222939323,0.09232689571500563,0.05386006724735681,0.05165187728644671,0.054433383895852394,0.04605058089612868,0.028870126384350492,0.011979380929373562,0.03803088763601625,0.06202725684340704,0.06106940216079426,0.06562542796942639,0.06775749335972137,0.09813788500645959,0.13227084585789584,0.17013924293497906,0.20598243535703764,0.24759080068916317,0.28465466776514736,0.31280999060158754,0.3051242520119217,0.26905469673383653,0.22887937048307272,0.19206360424100355,0.14463367234093694,0.11045756268177431,0.08047167335203875,0.05746655811225221,0.041065355311732166,0.03575559787924476
0,1,2,3,4,5,6,7,8,9,10,11,12,13,14,15,16,17,18,19,20,21,22,23,24,25,26,27,28,29,30,31,32,33,34,35,36,37,38,39,40,41,42,43,44,45,46,47,48,49,50,51,52,53,54,55,56,57,58,59,60,61,62,63,64,65,66,67,68,69,70,71,72,73,74,75,76,77,78,79,80,81,82,83,84,85,86,87,88,89,90,91,92,93,94,95,96,97,98,99,100,101,102,103,104,105,106,107,108,109,110,111,112,113,114,115,116,117,118,119,120,121,122,123,124,125,126,127,128,129,130,131,132,133,134,135,136,137,138,139,140,141,142,143,144,145,146,147,148,149,150,151,152,153,154,155,156,157,158,159,160,161,162,163,164,165,166,167,168,169,170,171,172,173,174,175,176,177,178,179,180,181,182,183,184,185,186,187,188,189,190,191,192,193,194,195,196,197,198,199,200,201,202,203,204,205,206,207,208,209,210,211,212,213,214,215,216,217,218,219,220,221,222,223,224,225,226,227,228,229,230,231,232,233,234,235,236,237,238,239,240,241,242,243,244,245,246,247,248,249,250,251,252,253,254
0.18198748666917863,0.22198289049768194,0.2565135987087319,0.29797448736862364,0.31430982579043887,0.2959090496379515,0.25989060365218997,0.21824006198032286,0.17656541532731884,0.13648600329098493,0.10136564499750955,0.0747148117907872,0.049566894515894244,0.03460717273254321,0.02896733401093421,0.0437534027719062,0.0887382399299752,0.14354269857851065,0.20107022128952945,0.2583451373810419,0.32277593414371974,0.37856420755221754,0.4424317580533681,0.5071101637379938,0.5627851473013648,0.6268545294671721,0.6926447483596752,0.7535274901901854,0.811487340770396,0.8765344818855088,0.9305706156269924,0.9480905807875253,0.906325236855412,0.8448071719653343,0.7800481506943169,0.7241563810027678,0.6604032461745293,0.5947203830846659,0.535791958021854,0.4759050140277057,0.41015476263562434,0.3444945876185761,0.2859351070844416,0.2256688115335841,0.15990246539865982,0.09414381044352949,0.0414886242840633,0.04087106204265689,0.04554171352455283,0.0441229168342141,0.039705508065706496,0.01813906619936878,0.01670962381826646,0.04728160935080439,0.05463039716139573,0.057891486340679865,0.0766906765200468,0.10417409088639928,0.13744653205902813,0.1777997877289148,0.22058544243425215,0.2617992485853766,0.3063202526577906,0.33317030603161113,0.32647550592508745,0.29366797651347243,0.25228691218932875,0.20760556724015267,0.16291003069022603,0.12338199933678418,0.09025768555086389,0.06565176224464153,0.04886223489284269,0.03162405257146572,0.03122348819440468,0.05245862363321141,0.10335986307838452,0.1587035453072878,0.21793334064213887,0.27588973807485306,0.34007608525224686,0.39577190196387013,0.46010455663712113,0.525710355599581,0.5837199066676528,0.6445715488145676,0.7103386592954619,0.7726172120589441,0.828896037883422,0.8792527683391236,0.9271722973299448,0.9498142926913924,0.9105908726106078,0.8530433774117445,0.787636266569467,0.7292612582996711,0.6688052869704593,0.6030328077595883,0.5387589140710318,0.4830886564437469,0.41860638222824464,0.3527787943413663,0.2876626230673538,0.23162601856455645,0.16834962872029768,0.1025510100291882,0.04382671056649068,0.028699129885941144,0.030019168669627394,0.03371080207850863,0.02587896899250186,0.0014455829890591687,0.008232886091823932,0.04117806078735731,0.054202733702820804,0.055834184259611064,0.0763016891307009,0.10644474834956297,0.14181841710118492,0.1793202020121889,0.2201313808890073,0.26050475086484237,0.3013037687118194,0.3231419028358715,0.3053986150611183,0.270371911653295,0.22750242527086462,0.18574343126685733,0.1376805931053493,0.10186789126135443,0.07162069559239548,0.053831539858272937,0.04257862529504308,0.035486552046359865,0.04012262015726664,0.07035906538308234,0.12246615782531878,0.18204877953760024,0.24072905796128552,0.302765924519353,0.3596401485135625,0.4250111825703575,0.49052002086805224,0.547893380574433,0.6094644703072931,0.6752387389431989,0.7368535281003594,0.7941891151610672,0.8595699375306882,0.9185210470387397,0.9692962505270319,0.965733832776329,0.9140298495031347,0.8493855379503255,0.7933489334475281,0.7300725436032689,0.6642530512014129,0.6004183072313318,0.5446111059553287,0.4798252195786987,0.41400253239726803,0.3504359463651592,0.2944776391318622,0.2295730491348329,0.16388353509966969,0.10510138172088102,0.06132298474404552,0.054690816902113415,0.05192917828882759,0.039477310392989295,0.022312690144086655,0.0,0.027496273329617793,0.056661739094437724,0.0674390865290655,0.07065738251828302,0.09467219391379178,0.12618405916193254,0.16056814645090522,0.20072995837243734,0.23925835992482725,0.27654885230890125,0.3105346174300174,0.3072250059437942,0.2726893463970237,0.23193811494839478,0.19665880674143654,0.1524513691647802,0.11327305122204034,0.08687221373917131,0.06859502423496933,0.051975411439294295,0.03934541351494225,0.03659104746456032,0.06394820607607654,0.11192208570257778,0.16678230250096604,0.2315977248333252,0.2931288005943724,0.3505302966645796,0.4160407249612921,0.47937317471473406,0.5353927398279721,0.6004697003073547,0.6662983468243215,0.7316332374453003,0.788139303773784,0.8507322835352804,0.9150885788665097,0.9689825547966762,1.0,0.9723703696940729,0.910271604931308,0.8531454217499648,0.7944391844328305,0.7480974672815193,0.689115587534153,0.6432289942504488,0.589723248231373,0.5274521288684495,0.46163962624323096,0.3958580388405908,0.33509632764191943,0.27700725265363735,0.21138920253462068,0.14709589222939323,0.09232689571500563,0.05386006724735681,0.05165187728644671,0.054433383895852394,0.04605058089612868,0.028870126384350492,0.011979380929373562,0.03803088763601625,0.06202725684340704,0.06106940216079426,0.06562542796942639,0.06775749335972137,0.09813788500645959,0.13227084585789584,0.17013924293497906,0.20598243535703764,0.24759080068916317,0.28465466776514736,0.31280999060158754,0.3051242520119217,0.26905469673383653,0.22887937048307272,0.19206360424100355,0.14463367234093694,0.11045756268177431,0.08047167335203875,0.05746655811225221,0.041065355311732166,0.03575559787924476
0,1,2,3,4,5,6,7,8,9,10,11,12,13,14,15,16,17,18,19,20,21,22,23,24,25,26,27,28,29,30,31,32,33,34,35,36,37,38,39,40,41,42,43,44,45,46,47,48,49,50,51,52,53,54,55,56,57,58,59,60,61,62,63,64,65,66,67,68,69,70,71,72,73,74,75,76,77,78,79,80,81,82,83,84,85,86,87,88,89,90,91,92,93,94,95,96,97,98,99,100,101,102,103,104,105,106,107,108,109,110,111,112,113,114,115,116,117,118,119,120,121,122,123,124,125,126,127,128,129,130,131,132,133,134,135,136,137,138,139,140,141,142,143,144,145,146,147,148,149,150,151,152,153,154,155,156,157,158,159,160,161,162,163,164,165,166,167,168,169,170,171,172,173,174,175,176,177,178,179,180,181,182,183,184,185,186,187,188,189,190,191,192,193,194,195,196,197,198,199,200,201,202,203,204,205,206,207,208,209,210,211,212,213,214,215,216,217,218,219,220,221,222,223,224,225,226,227,228,229,230,231,232,233,234,235,236,237,238,239,240,241,242,243,244,245,246,247,248,249,250,251,252,253,254
0.12117968309951066,0.12259514435907115,0.11782894894685114,0.10686465697488878,0.10151735546810547,0.10165697741720714,0.1100058214241979,0.12190800001903801,0.13594145245797495,0.15034807222814783,0.1464585802919418,0.14665885436421466,0.15804629657274516,0.17220233731244639,0.17932643438604057,0.17455860171942694,0.15437876286789187,0.13470858550063736,0.11034070629606396,0.08526847417168426,0.06036470585770859,0.04002448485890309,0.034269006590046835,0.041882964431404934,0.05405010259021048,0.06994869875164778,0.09164608396395946,0.1232944501870108,0.15822388196350712,0.19642869759183323,0.23204278762365016,0.27172166902237205,0.31287412933790404,0.34810291270735405,0.38847421032909213,0.43024191111059684,0.46997765675062086,0.5055830372637711,0.5470060412210191,0.5887838656772333,0.6299604395469112,0.6652129246349656,0.7055442051248331,0.7473190206845148,0.7890963732917167,0.8300562341768167,0.8651240591674882,0.905853201463404,0.9453633121486569,0.9542800333731114,0.9263851110532089,0.8870736272916158,0.8453077768700836,0.8046430202812946,0.7695632487887363,0.7285484730515204,0.6867716058874322,0.6459098905503855,0.6161161019797532,0.5828429839368343,0.5453328099731893,0.5036132228115064,0.4618350860332763,0.42005700313160665,0.3785793210611701,0.34273960916755764,0.30329047025551437,0.2615220571491763,0.21990285525636932,0.18345663861332606,0.14474947141082906,0.10532000262729824,0.08654250971420807,0.08094263840063776,0.08440766875023575,0.09353570224983176,0.08719932574752587,0.0654086915242742,0.04704097718802713,0.04837244423500309,0.04459393517984034,0.03284234645897044,0.02098155105483457,0.00970505430657731,0.008181262112334275,0.00817354506883361,0.006233144154067727,0.0,0.00011351756526245538,0.00918495035344602,0.024278213175507712,0.038147379519775315,0.04731901439047781,0.04860617873027828,0.0353360117183783,0.02163883124223487,0.01737122854599571,0.03829398318510879,0.06328233137327244,0.08833698799035128,0.1117386560547391,0.12568878601580247,0.12456942997623033,0.10945220113657905,0.08705439916253721,0.06521109554884763,0.05493583541052138,0.06571524036248544,0.08455682530314967,0.10413909109809749,0.1262511653130054,0.14344395768382534,0.17170707656998463,0.20661047662535337,0.24309199482213106,0.28115860344967136,0.3168910929816522,0.35638941714400363,0.3968223211381363,0.4320487068211034,0.47313791948919315,0.5149154445275359,0.5563776685647552,0.5920409834419571,0.6316807798529305,0.6734504310186591,0.7152285677968886,0.7569656627711605,0.7950506762925211,0.8320851012608552,0.873762966928014,0.9148353735790338,0.9499354382699348,0.9882769160912892,1.0000000000000002,0.9730905688042972,0.9379920286742183,0.8967715086249182,0.8549935905936252,0.8132162666576164,0.7723501017442878,0.7372306246170528,0.6964574742291498,0.6546805434806138,0.612902406702384,0.5711242699241537,0.5293461331459235,0.4875679963676933,0.4457898595894634,0.404015798576554,0.3638579256581258,0.32850273312278433,0.28725502352000354,0.24595784480793026,0.21086371475903198,0.1889498942843717,0.19790019868767006,0.2112221577576472,0.22728307506878664,0.23932166682448464,0.2350183502649954,0.2179824815694995,0.20656838923820287,0.21801906120760206,0.22968701556234228,0.2263487945887317,0.21827446828069674,0.22047573802258902,0.23380009440474536,0.2453545152460701,0.2547771541492425,0.245688740260239,0.23277908043479045,0.21132110245109348,0.19372312429437621,0.1887432097811803,0.1940134174669601,0.1954514361114561,0.19843511352472043,0.20403636609841702,0.19587727615765904,0.180996226618219,0.176669983255775,0.19472133543166392,0.21370425687959105,0.2284725272021224,0.22339928823872568,0.20776679554647481,0.18506032673942752,0.15437741540714534,0.12795816188692122,0.10054614823611963,0.07775911482251407,0.06163802569601984,0.05970787703678293,0.06394885622385549,0.0699709632542902,0.09073539870185643,0.12392546610583599,0.16053695982250282,0.19598926241690684,0.23441911618822986,0.2707822799537416,0.31182456696002214,0.34714023354106827,0.3873648016792801,0.42913915290248594,0.4708232520006219,0.5078480599768673,0.5459361367811366,0.5876740632372688,0.6294522000154978,0.6712290066879558,0.7119472422237427,0.7470845374435997,0.7879878769827211,0.8297652471285104,0.8713225229414807,0.907350789876703,0.9463519905915498,0.978513001839689,0.9768017236615003,0.9454256587133021,0.9064458677875449,0.8646812744842307,0.8229038488867062,0.7819558997966325,0.7467972228656288,0.7061448851523822,0.6643682273712179,0.6225900905929886,0.5808119538147578,0.5390338170365288,0.4972556802582977,0.4554775434800684,0.41369940670183736,0.37193657054182117,0.33273131637648,0.2967196584586087,0.2551644967721425,0.213496946693573,0.17665452019390626,0.13837901029541366,0.10044103868438681,0.09343109340942646,0.09758097579022196,0.11075193344933343,0.1241741558322913,0.12205399223206337,0.10666968407261579,0.08821765968464246,0.08538646555541773,0.08476401829173552,0.0757927806870673,0.06846078851729476
0,1,2,3,4,5,6,7,8,9,10,11,12,13,14,15,16,17,18,19,20,21,22,23,24,25,26,27,28,29,30,31,32,33,34,35,36,37,38,39,40,41,42,43,44,45,46,47,48,49,50,51,52,53,54,55,56,57,58,59,60,61,62,63,64,65,66,67,68,69,70,71,72,73,74,75,76,77,78,79,80,81,82,83,84,85,86,87,88,89,90,91,92,93,94,95,96,97,98,99,100,101,102,103,104,105,106,107,108,109,110,111,112,113,114,115,116,117,118,119,120,121,122,123,124,125,126,127,128,129,130,131,132,133,134,135,136,137,138,139,140,141,142,143,144,145,146,147,148,149,150,151,152,153,154,155,156,157,158,159,160,161,162,163,164,165,166,167,168,169,170,171,172,173,174,175,176,177,178,179,180,181,182,183,184,185,186,187,188,189,190,191,192,193,194,195,196,197,198,199,200,201,202,203,204,205,206,207,208,209,210,211,212,213,214,215,216,217,218,219,220,221,222,223,224,225,226,227,228,229,230,231,232,233,234,235,236,237,238,239,240,241,242,243,244,245,246,247,248,249,250,251,252,253,254
0.8504136260552189,0.81656644447422,0.7866425368207342,0.756263052162963,0.7103861984782256,0.6680024476387132,0.6379499952349255,0.6178163108001016,0.6007413517322777,0.5817899456502524,0.5789850986293565,0.5789837665710431,0.5789837665710431,0.5789837665710431,0.578943925365786,0.5707961174462057,0.5612225783082447,0.576500012292096,0.5749581494751292,0.5603359237842405,0.5667306288858911,0.5787585558681525,0.5664852905801587,0.5596595098682604,0.5596361901266289,0.5596485160266016,0.5644618312769736,0.5784796915886878,0.5789837665710431,0.5781245933024182,0.5644777202124747,0.5661515215052768,0.5675280389370485,0.5795494114612434,0.5942682317461503,0.6033757717730754,0.6375224297475865,0.6470843377178488,0.6271554426145505,0.5982433166696643,0.5754043466735466,0.5601782459232756,0.5596361901266289,0.5596229440134364,0.552988226911828,0.5198094948700218,0.47990783577733254,0.44878353419443995,0.44521262539014295,0.4743044713314446,0.5203516004825901,0.573229091148876,0.6201929172931955,0.6485704293304235,0.5996710499682023,0.5418000740941289,0.49766598398394546,0.4399570850121548,0.39411185521444425,0.3391244601326049,0.28900572625528076,0.23867521811279646,0.18991192957111158,0.13933216395890868,0.09703991765672759,0.057075011788910945,0.017495564828704513,0.0,0.026544633928931916,0.07010411294209984,0.11374097433794716,0.1588745798590101,0.21183207230984946,0.26466567762519144,0.3123159439804728,0.3715143595162975,0.4168528429117262,0.4715419734766546,0.5163250652088398,0.5618910745339396,0.6005296881844231,0.6292981385613796,0.638805971575231,0.6547600843288008,0.6635918383672914,0.6781196362821826,0.6947646225369484,0.7137830086342785,0.737111991516012,0.7629745788717357,0.7847637014550823,0.8154486443842837,0.8489294237687055,0.8756401488097869,0.9134532644592346,0.9491014898838235,0.9809786580253399,1.0,0.9888107610424215,0.9511629171735971,0.9198548657507506,0.8844155182221876,0.8590780733023409,0.8199991174356365,0.7808916122911098,0.7509149813945393,0.7219886607593673,0.7003980741350873,0.67536709349912,0.6445690020287818,0.6381638978000979,0.652700458277903,0.6414389293958447,0.6431018925068979,0.67064940514555,0.6934564951179842,0.6901568325998602,0.6786233170342895,0.6941213698668536,0.6883280946438965,0.6769796518380122,0.6917461941579677,0.6944484719149431,0.679934120457645,0.6757306432259171,0.675745634828179,0.6826003517544201,0.6830816368762656,0.6757483000019144,0.6757216487931137,0.67534385165041,0.6618741999334392,0.6563398148821453,0.6474625998670049,0.6371898136191709,0.6432018620450934,0.6581102882810446,0.6837048145641429,0.7132668984275878,0.7082506035277802,0.68198715801257,0.6598602476066402,0.6385163055007284,0.633937809020924,0.6187977326145657,0.6176070071702258,0.6062842965071371,0.566154375144329,0.5240478777034703,0.4964288183075882,0.4857542638650303,0.5144589098042216,0.5604633605108544,0.6108946001475091,0.6633408212062579,0.6474175862596656,0.6037751954506265,0.5476513482857515,0.49903141872009327,0.4471687969215403,0.39310584117141145,0.3465162098498791,0.28919648977793644,0.24539601385095278,0.2009681768822995,0.14604029911556848,0.08694892369961149,0.04639717842150137,0.020967813340941,0.020096899825969405,0.04699719348972131,0.09891259216865977,0.1432522018110589,0.19830786840077463,0.24344297357046285,0.2977065761880202,0.3436337453298641,0.397105283975268,0.44384737084833903,0.5013637591762099,0.5446948196319199,0.5886495580703457,0.6254444534187455,0.6463816833592517,0.6662614966589553,0.6756644629625965,0.6759362848865611,0.6876238048022874,0.7011750750327441,0.7207584696194713,0.7357377447130249,0.7600903741785747,0.7900629267020718,0.8200534348188642,0.8565655673065069,0.8963304784766768,0.925391529759755,0.9431947822352797,0.9303739233804715,0.9062873014638502,0.8681067973134149,0.8374924210913455,0.7955145286431033,0.7581779390314023,0.7203096310226096,0.6888393633615424,0.6532306248129389,0.6193445365468517,0.5901016092467772,0.5751982745202051,0.5659424550954264,0.5622096799641882,0.5670994589775695,0.5774385090329064,0.56153153397609,0.5596369069925986,0.5591665545550879,0.545296325374121,0.5369789079427774,0.5219489174360996,0.5209636043292054,0.5276311723208029,0.5472846180044373,0.5595373771954901,0.5596361901266289,0.5596361901266289,0.5597719667686243,0.5699115463043016,0.5789291846469329,0.5755384145158331,0.5664455398273187,0.5786750597841883,0.5789837665710431,0.579012416660146,0.5869813245949076,0.6075079997665784,0.6337776439625391,0.6526823800910915,0.6476776796779466,0.6136957915501742,0.5883783109198841,0.5636905946876687,0.5718247605464617,0.5623036482717838,0.5596371302787198,0.55791676827599,0.5209173843494517,0.4767758113524212,0.4466150176742212,0.4303389554070578,0.44975997050080263,0.4870837634628731,0.5396102264082026,0.5927421113023312,0.6364609120858451
0,1,2,3,4,5,6,7,8,9,10,11,12,13,14,15,16,17,18,19,20,21,22,23,24,25,26,27,28,29,30,31,32,33,34,35,36,37,38,39,40,41,42,43,44,45,46,47,48,49,50,51,52,53,54,55,56,57,58,59,60,61,62,63,64,65,66,67,68,69,70,71,72,73,74,75,76,77,78,79,80,81,82,83,84,85,86,87,88,89,90,91,92,93,94,95,96,97,98,99,100,101,102,103,104,105,106,107,108,109,110,111,112,113,114,115,116,117,118,119,120,121,122,123,124,125,126,127,128,129,130,131,132,133,134,135,136,137,138,139,140,141,142,143,144,145,146,147,148,149,150,151,152,153,154,155,156,157,158,159,160,161,162,163,164,165,166,167,168,169,170,171,172,173,174,175,176,177,178,179,180,181,182,183,184,185,186,187,188,189,190,191,192,193,194,195,196,197,198,199,200,201,202,203,204,205,206,207,208,209,210,211,212,213,214,215,216,217,218,219,220,221,222,223,224,225,226,227,228,229,230,231,232,233,234,235,236,237,238,239,240,241,242,243,244,245,246,247,248,249,250,251,252,253,254
0.8504136260552189,0.81656644447422,0.7866425368207342,0.756263052162963,0.7103861984782256,0.6680024476387132,0.6379499952349255,0.6178163108001016,0.6007413517322777,0.5817899456502524,0.5789850986293565,0.5789837665710431,0.5789837665710431,0.5789837665710431,0.578943925365786,0.5707961174462057,0.5612225783082447,0.576500012292096,0.5749581494751292,0.5603359237842405,0.5667306288858911,0.5787585558681525,0.5664852905801587,0.5596595098682604,0.5596361901266289,0.5596485160266016,0.5644618312769736,0.5784796915886878,0.5789837665710431,0.5781245933024182,0.5644777202124747,0.5661515215052768,0.5675280389370485,0.5795494114612434,0.5942682317461503,0.6033757717730754,0.6375224297475865,0.6470843377178488,0.6271554426145505,0.5982433166696643,0.5754043466735466,0.5601782459232756,0.5596361901266289,0.5596229440134364,0.552988226911828,0.5198094948700218,0.47990783577733254,0.44878353419443995,0.44521262539014295,0.4743044713314446,0.5203516004825901,0.573229091148876,0.6201929172931955,0.6485704293304235,0.5996710499682023,0.5418000740941289,0.49766598398394546,0.4399570850121548,0.39411185521444425,0.3391244601326049,0.28900572625528076,0.23867521811279646,0.18991192957111158,0.13933216395890868,0.09703991765672759,0.057075011788910945,0.017495564828704513,0.0,0.026544633928931916,0.07010411294209984,0.11374097433794716,0.1588745798590101,0.21183207230984946,0.26466567762519144,0.3123159439804728,0.3715143595162975,0.4168528429117262,0.4715419734766546,0.5163250652088398,0.5618910745339396,0.6005296881844231,0.6292981385613796,0.638805971575231,0.6547600843288008,0.6635918383672914,0.6781196362821826,0.6947646225369484,0.7137830086342785,0.737111991516012,0.7629745788717357,0.7847637014550823,0.8154486443842837,0.8489294237687055,0.8756401488097869,0.9134532644592346,0.9491014898838235,0.9809786580253399,1.0,0.9888107610424215,0.9511629171735971,0.9198548657507506,0.8844155182221876,0.8590780733023409,0.8199991174356365,0.7808916122911098,0.7509149813945393,0.7219886607593673,0.7003980741350873,0.67536709349912,0.6445690020287818,0.6381638978000979,0.652700458277903,0.6414389293958447,0.6431018925068979,0.67064940514555,0.6934564951179842,0.6901568325998602,0.6786233170342895,0.6941213698668536,0.6883280946438965,0.6769796518380122,0.6917461941579677,0.6944484719149431,0.679934120457645,0.6757306432259171,0.675745634828179,0.6826003517544201,0.6830816368762656,0.6757483000019144,0.6757216487931137,0.67534385165041,0.6618741999334392,0.6563398148821453,0.6474625998670049,0.6371898136191709,0.6432018620450934,0.6581102882810446,0.6837048145641429,0.7132668984275878,0.7082506035277802,0.68198715801257,0.6598602476066402,0.6385163055007284,0.633937809020924,0.6187977326145657,0.6176070071702258,0.6062842965071371,0.566154375144329,0.5240478777034703,0.4964288183075882,0.4857542638650303,0.5144589098042216,0.5604633605108544,0.6108946001475091,0.6633408212062579,0.6474175862596656,0.6037751954506265,0.5476513482857515,0.49903141872009327,0.4471687969215403,0.39310584117141145,0.3465162098498791,0.28919648977793644,0.24539601385095278,0.2009681768822995,0.14604029911556848,0.08694892369961149,0.04639717842150137,0.020967813340941,0.020096899825969405,0.04699719348972131,0.09891259216865977,0.1432522018110589,0.19830786840077463,0.24344297357046285,0.2977065761880202,0.3436337453298641,0.397105283975268,0.44384737084833903,0.5013637591762099,0.5446948196319199,0.5886495580703457,0.6254444534187455,0.6463816833592517,0.6662614966589553,0.6756644629625965,0.6759362848865611,0.6876238048022874,0.7011750750327441,0.7207584696194713,0.7357377447130249,0.7600903741785747,0.7900629267020718,0.8200534348188642,0.8565655673065069,0.8963304784766768,0.925391529759755,0.9431947822352797,0.9303739233804715,0.9062873014638502,0.8681067973134149,0.8374924210913455,0.7955145286431033,0.7581779390314023,0.7203096310226096,0.6888393633615424,0.6532306248129389,0.6193445365468517,0.5901016092467772,0.5751982745202051,0.5659424550954264,0.5622096799641882,0.5670994589775695,0.5774385090329064,0.56153153397609,0.5596369069925986,0.5591665545550879,0.545296325374121,0.5369789079427774,0.5219489174360996,0.5209636043292054,0.5276311723208029,0.5472846180044373,0.5595373771954901,0.5596361901266289,0.5596361901266289,0.5597719667686243,0.5699115463043016,0.5789291846469329,0.5755384145158331,0.5664455398273187,0.5786750597841883,0.5789837665710431,0.579012416660146,0.5869813245949076,0.6075079997665784,0.6337776439625391,0.6526823800910915,0.6476776796779466,0.6136957915501742,0.5883783109198841,0.5636905946876687,0.5718247605464617,0.5623036482717838,0.5596371302787198,0.55791676827599,0.5209173843494517,0.4767758113524212,0.4466150176742212,0.4303389554070578,0.44975997050080263,0.4870837634628731,0.5396102264082026,0.5927421113023312,0.6364609120858451
0,1,2,3,4,5,6,7,8,9,10,11,12,13,14,15,16,17,18,19,20,21,22,23,24,25,26,27,28,29,30,31,32,33,34,35,36,37,38,39,40,41,42,43,44,45,46,47,48,49,50,51,52,53,54,55,56,57,58,59,60,61,62,63,64,65,66,67,68,69,70,71,72,73,74,75,76,77,78,79,80,81,82,83,84,85,86,87,88,89,90,91,92,93,94,95,96,97,98,99,100,101,102,103,104,105,106,107,108,109,110,111,112,113,114,115,116,117,118,119,120,121,122,123,124,125,126,127,128,129,130,131,132,133,134,135,136,137,138,139,140,141,142,143,144,145,146,147,148,149,150,151,152,153,154,155,156,157,158,159,160,161,162,163,164,165,166,167,168,169,170,171,172,173,174,175,176,177,178,179,180,181,182,183,184,185,186,187,188,189,190,191,192,193,194,195,196,197,198,199,200,201,202,203,204,205,206,207,208,209,210,211,212,213,214,215,216,217,218,219,220,221,222,223,224,225,226,227,228,229,230,231,232,233,234,235,236,237,238,239,240,241,242,243,244,245,246,247,248,249,250,251,252,253,254
0.8504136260552189,0.81656644447422,0.7866425368207342,0.756263052162963,0.7103861984782256,0.6680024476387132,0.6379499952349255,0.6178163108001016,0.6007413517322777,0.5817899456502524,0.5789850986293565,0.5789837665710431,0.5789837665710431,0.5789837665710431,0.578943925365786,0.5707961174462057,0.5612225783082447,0.576500012292096,0.5749581494751292,0.5603359237842405,0.5667306288858911,0.5787585558681525,0.5664852905801587,0.5596595098682604,0.5596361901266289,0.5596485160266016,0.5644618312769736,0.5784796915886878,0.5789837665710431,0.5781245933024182,0.5644777202124747,0.5661515215052768,0.5675280389370485,0.5795494114612434,0.5942682317461503,0.6033757717730754,0.6375224297475865,0.6470843377178488,0.6271554426145505,0.5982433166696643,0.5754043466735466,0.5601782459232756,0.5596361901266289,0.5596229440134364,0.552988226911828,0.5198094948700218,0.47990783577733254,0.44878353419443995,0.44521262539014295,0.4743044713314446,0.5203516004825901,0.573229091148876,0.6201929172931955,0.6485704293304235,0.5996710499682023,0.5418000740941289,0.49766598398394546,0.4399570850121548,0.39411185521444425,0.3391244601326049,0.28900572625528076,0.23867521811279646,0.18991192957111158,0.13933216395890868,0.09703991765672759,0.057075011788910945,0.017495564828704513,0.0,0.026544633928931916,0.07010411294209984,0.11374097433794716,0.1588745798590101,0.21183207230984946,0.26466567762519144,0.3123159439804728,0.3715143595162975,0.4168528429117262,0.4715419734766546,0.5163250652088398,0.5618910745339396,0.6005296881844231,0.6292981385613796,0.638805971575231,0.6547600843288008,0.6635918383672914,0.6781196362821826,0.6947646225369484,0.7137830086342785,0.737111991516012,0.7629745788717357,0.7847637014550823,0.8154486443842837,0.8489294237687055,0.8756401488097869,0.9134532644592346,0.9491014898838235,0.9809786580253399,1.0,0.9888107610424215,0.9511629171735971,0.9198548657507506,0.8844155182221876,0.8590780733023409,0.8199991174356365,0.7808916122911098,0.7509149813945393,0.7219886607593673,0.7003980741350873,0.67536709349912,0.6445690020287818,0.6381638978000979,0.652700458277903,0.6414389293958447,0.6431018925068979,0.67064940514555,0.6934564951179842,0.6901568325998602,0.6786233170342895,0.6941213698668536,0.6883280946438965,0.6769796518380122,0.6917461941579677,0.6944484719149431,0.679934120457645,0.6757306432259171,0.675745634828179,0.6826003517544201,0.6830816368762656,0.6757483000019144,0.6757216487931137,0.67534385165041,0.6618741999334392,0.6563398148821453,0.6474625998670049,0.6371898136191709,0.6432018620450934,0.6581102882810446,0.6837048145641429,0.7132668984275878,0.7082506035277802,0.68198715801257,0.6598602476066402,0.6385163055007284,0.633937809020924,0.6187977326145657,0.6176070071702258,0.6062842965071371,0.566154375144329,0.5240478777034703,0.4964288183075882,0.4857542638650303,0.5144589098042216,0.5604633605108544,0.6108946001475091,0.6633408212062579,0.6474175862596656,0.6037751954506265,0.5476513482857515,0.49903141872009327,0.4471687969215403,0.39310584117141145,0.3465162098498791,0.28919648977793644,0.24539601385095278,0.2009681768822995,0.14604029911556848,0.08694892369961149,0.04639717842150137,0.020967813340941,0.020096899825969405,0.04699719348972131,0.09891259216865977,0.1432522018110589,0.19830786840077463,0.24344297357046285,0.2977065761880202,0.3436337453298641,0.397105283975268,0.44384737084833903,0.5013637591762099,0.5446948196319199,0.5886495580703457,0.6254444534187455,0.6463816833592517,0.6662614966589553,0.6756644629625965,0.6759362848865611,0.6876238048022874,0.7011750750327441,0.7207584696194713,0.7357377447130249,0.7600903741785747,0.7900629267020718,0.8200534348188642,0.8565655673065069,0.8963304784766768,0.925391529759755,0.9431947822352797,0.9303739233804715,0.9062873014638502,0.8681067973134149,0.8374924210913455,0.7955145286431033,0.7581779390314023,0.7203096310226096,0.6888393633615424,0.6532306248129389,0.6193445365468517,0.5901016092467772,0.5751982745202051,0.5659424550954264,0.5622096799641882,0.5670994589775695,0.5774385090329064,0.56153153397609,0.5596369069925986,0.5591665545550879,0.545296325374121,0.5369789079427774,0.5219489174360996,0.5209636043292054,0.5276311723208029,0.5472846180044373,0.5595373771954901,0.5596361901266289,0.5596361901266289,0.5597719667686243,0.5699115463043016,0.5789291846469329,0.5755384145158331,0.5664455398273187,0.5786750597841883,0.5789837665710431,0.579012416660146,0.5869813245949076,0.6075079997665784,0.6337776439625391,0.6526823800910915,0.6476776796779466,0.6136957915501742,0.5883783109198841,0.5636905946876687,0.5718247605464617,0.5623036482717838,0.5596371302787198,0.55791676827599,0.5209173843494517,0.4767758113524212,0.4466150176742212,0.4303389554070578,0.44975997050080263,0.4870837634628731,0.5396102264082026,0.5927421113023312,0.6364609120858451
0,1,2,3,4,5,6,7,8,9,10,11,12,13,14,15,16,17,18,19,20,21,22,23,24,25,26,27,28,29,30,31,32,33,34,35,36,37,38,39,40,41,42,43,44,45,46,47,48,49,50,51,52,53,54,55,56,57,58,59,60,61,62,63,64,65,66,67,68,69,70,71,72,73,74,75,76,77,78,79,80,81,82,83,84,85,86,87,88,89,90,91,92,93,94,95,96,97,98,99,100,101,102,103,104,105,106,107,108,109,110,111,112,113,114,115,116,117,118,119,120,121,122,123,124,125,126,127,128,129,130,131,132,133,134,135,136,137,138,139,140,141,142,143,144,145,146,147,148,149,150,151,152,153,154,155,156,157,158,159,160,161,162,163,164,165,166,167,168,169,170,171,172,173,174,175,176,177,178,179,180,181,182,183,184,185,186,187,188,189,190,191,192,193,194,195,196,197,198,199,200,201,202,203,204,205,206,207,208,209,210,211,212,213,214,215,216,217,218,219,220,221,222,223,224,225,226,227,228,229,230,231,232,233,234,235,236,237,238,239,240,241,242,243,244,245,246,247,248,249,250,251,252,253,254
0.3400043387283107,0.3364595483242532,0.32449326160323677,0.3239883474835885,0.32261757301788574,0.3095518333869083,0.3028209304407872,0.2834371552167969,0.27935030513130865,0.25726140066350434,0.20458328048924068,0.14943637529833742,0.09968951991798747,0.06842379348602634,0.020923901072867235,0.0,0.0009830263783427995,0.050461691099116024,0.0884272757558886,0.12945006164255268,0.18435526053553808,0.239144148352191,0.2765037988224397,0.2882051779941044,0.26767122984631486,0.24916870378934108,0.24390841024412602,0.2440517117818608,0.2551514258614853,0.27741779831920166,0.30165577945756805,0.3248452944973437,0.3475510665571284,0.36179204694589506,0.37188120473501574,0.37210959725272597,0.37935348310151396,0.38797134758098606,0.38807253127401964,0.38807253127401964,0.38807253127401964,0.38807253127401964,0.38807253127401964,0.3875263451354023,0.37746814636555204,0.3868862613480899,0.3871332445856823,0.3694426491200793,0.3492799432788911,0.3401904896562953,0.34983279288420244,0.38306881689675976,0.4152429455482589,0.4201075247362036,0.4209450435817157,0.4301109528853191,0.41915210323169205,0.40560756187002367,0.40278370224649107,0.38000774781486024,0.33139806424411145,0.2978664087774434,0.294284906467575,0.32883103296421323,0.371307469551454,0.42372752498283006,0.4774688640585163,0.5196969209301452,0.5731935470235721,0.6283552218755357,0.6833249075927577,0.7288624282872975,0.7778394941480635,0.8329833295244207,0.887564288746959,0.9301340049480293,0.9672458990310862,1.0,0.9862518612675606,0.9323821650251243,0.8851154002768169,0.8379407874078759,0.7829856044504115,0.7372730952272355,0.6884982092513221,0.6333813992184871,0.5783095766517969,0.5317078729967548,0.4947941298441494,0.457996865546884,0.42499406579181676,0.4053875284148467,0.39433219088168414,0.37388151011887727,0.34662265329138897,0.3258542725196163,0.32399040538588286,0.3239837105400052,0.32033266500518254,0.29852456378058356,0.28885883630152076,0.27629547760898987,0.26463329220737597,0.2557169758790341,0.24432069976211102,0.24937837633103532,0.2680475826878883,0.2946479756835827,0.3221276852123638,0.34373760678062526,0.3563016352276165,0.3687449223354524,0.3721143328444043,0.37995333170839496,0.3878207334841597,0.3777556232837722,0.3720842791249437,0.37205159099335905,0.37205159099335905,0.37205159099335905,0.37205159099335905,0.37205159099335905,0.3719710033019057,0.36364261007877374,0.34582628023095996,0.34041832549367745,0.35487189592997526,0.38870745353576597,0.4099865020699438,0.4134152794192527,0.40633723829665325,0.41678046525990364,0.40517369225662714,0.403680411141234,0.39114625080069443,0.3679487255930334,0.33167264658945594,0.2948815257428339,0.2655516401459779,0.2782368725271418,0.31914439556064433,0.37046311961342004,0.41850817809825225,0.4649229271527,0.5199778361630356,0.5737056957304625,0.6159225861582223,0.6694448355850375,0.7246065179930734,0.7797450292782919,0.8297341144699559,0.8742749501643661,0.9288166112345522,0.9567435707428236,0.9153711711434154,0.8726552516518984,0.8182192528235475,0.7641985706555512,0.7219525928177486,0.6687655034388329,0.6188462321472588,0.5743047022177863,0.5289069069006671,0.48021733678886935,0.43532840576696064,0.40698270606057285,0.37941718932975643,0.3580709766778667,0.3524698615390349,0.3401531898234511,0.32818764625288743,0.32399502727044194,0.32398834512231645,0.32274351874433194,0.3091577878855811,0.2950930354908321,0.2814423259169745,0.26806941156660713,0.25997580736469983,0.2615074819853458,0.28096460369888066,0.3006508086581192,0.3208997301417065,0.34720615608982586,0.3665845405705932,0.3840698029476086,0.3880645067852706,0.3881917836827977,0.3962948434349416,0.39054968400223933,0.3880761947044591,0.38807253127401964,0.38807253127401964,0.38807253127401964,0.38762343678057887,0.37593346233716396,0.3721708869143918,0.3802293474740752,0.3743497673045275,0.35802478805319726,0.3320259910877428,0.32426427049360074,0.336032752834857,0.36544516814742334,0.3968139935538537,0.4024845005847455,0.38953633369176854,0.3880531762215744,0.3814819781581873,0.3720098764710378,0.3607059771656327,0.33410254714233867,0.29752869955384753,0.26182727512856463,0.24769941168969778,0.2783275108141088,0.3261800131730217,0.37305399295984376,0.4205803089141398,0.47568502038449134,0.5304293147787638,0.5741284100458861,0.6251599945852195,0.6803133301583069,0.7354725392587955,0.78836565206164,0.8261784347422299,0.8564972815399674,0.9070366684808628,0.9489054589901889,0.961608495290688,0.9114753077946229,0.8690875900252149,0.8162685417756124,0.7623903668465792,0.7202291480040288,0.666820992912307,0.6174984370337455,0.5722760601723587,0.5191467914375232,0.47699887098074534,0.43268837844231545,0.38685201133170155,0.35460523163190816,0.33341630274661016,0.3113935368541161,0.30816142956348225,0.31775073280142196,0.32685393461133616,0.33927737359113896,0.34055462217612487,0.3459902514302815,0.3388802257798127,0.32329712562171764,0.3089389677738197
0,1,2,3,4,5,6,7,8,9,10,11,12,13,14,15,16,17,18,19,20,21,22,23,24,25,26,27,28,29,30,31,32,33,34,35,36,37,38,39,40,41,42,43,44,45,46,47,48,49,50,51,52,53,54,55,56,57,58,59,60,61,62,63,64,65,66,67,68,69,70,71,72,73,74,75,76,77,78,79,80,81,82,83,84,85,86,87,88,89,90,91,92,93,94,95,96,97,98,99,100,101,102,103,104,105,106,107,108,109,110,111,112,113,114,115,116,117,118,119,120,121,122,123,124,125,126,127,128,129,130,131,132,133,134,135,136,137,138,139,140,141,142,143,144,145,146,147,148,149,150,151,152,153,154,155,156,157,158,159,160,161,162,163,164,165,166,167,168,169,170,171,172,173,174,175,176,177,178,179,180,181,182,183,184,185,186,187,188,189,190,191,192,193,194,195,196,197,198,199,200,201,202,203,204,205,206,207,208,209,210,211,212,213,214,215,216,217,218,219,220,221,222,223,224,225,226,227,228,229,230,231,232,233,234,235,236,237,238,239,240,241,242,243,244,245,246,247,248,249,250,251,252,253,254
0.3400043387283107,0.3364595483242532,0.32449326160323677,0.3239883474835885,0.32261757301788574,0.3095518333869083,0.3028209304407872,0.2834371552167969,0.27935030513130865,0.25726140066350434,0.20458328048924068,0.14943637529833742,0.09968951991798747,0.06842379348602634,0.020923901072867235,0.0,0.0009830263783427995,0.050461691099116024,0.0884272757558886,0.12945006164255268,0.18435526053553808,0.239144148352191,0.2765037988224397,0.2882051779941044,0.26767122984631486,0.24916870378934108,0.24390841024412602,0.2440517117818608,0.2551514258614853,0.27741779831920166,0.30165577945756805,0.3248452944973437,0.3475510665571284,0.36179204694589506,0.37188120473501574,0.37210959725272597,0.37935348310151396,0.38797134758098606,0.38807253127401964,0.38807253127401964,0.38807253127401964,0.38807253127401964,0.38807253127401964,0.3875263451354023,0.37746814636555204,0.3868862613480899,0.3871332445856823,0.3694426491200793,0.3492799432788911,0.3401904896562953,0.34983279288420244,0.38306881689675976,0.4152429455482589,0.4201075247362036,0.4209450435817157,0.4301109528853191,0.41915210323169205,0.40560756187002367,0.40278370224649107,0.38000774781486024,0.33139806424411145,0.2978664087774434,0.294284906467575,0.32883103296421323,0.371307469551454,0.42372752498283006,0.4774688640585163,0.5196969209301452,0.5731935470235721,0.6283552218755357,0.6833249075927577,0.7288624282872975,0.7778394941480635,0.8329833295244207,0.887564288746959,0.9301340049480293,0.9672458990310862,1.0,0.9862518612675606,0.9323821650251243,0.8851154002768169,0.8379407874078759,0.7829856044504115,0.7372730952272355,0.6884982092513221,0.6333813992184871,0.5783095766517969,0.5317078729967548,0.4947941298441494,0.457996865546884,0.42499406579181676,0.4053875284148467,0.39433219088168414,0.37388151011887727,0.34662265329138897,0.3258542725196163,0.32399040538588286,0.3239837105400052,0.32033266500518254,0.29852456378058356,0.28885883630152076,0.27629547760898987,0.26463329220737597,0.2557169758790341,0.24432069976211102,0.24937837633103532,0.2680475826878883,0.2946479756835827,0.3221276852123638,0.34373760678062526,0.3563016352276165,0.3687449223354524,0.3721143328444043,0.37995333170839496,0.3878207334841597,0.3777556232837722,0.3720842791249437,0.37205159099335905,0.37205159099335905,0.37205159099335905,0.37205159099335905,0.37205159099335905,0.3719710033019057,0.36364261007877374,0.34582628023095996,0.34041832549367745,0.35487189592997526,0.38870745353576597,0.4099865020699438,0.4134152794192527,0.40633723829665325,0.41678046525990364,0.40517369225662714,0.403680411141234,0.39114625080069443,0.3679487255930334,0.33167264658945594,0.2948815257428339,0.2655516401459779,0.2782368725271418,0.31914439556064433,0.37046311961342004,0.41850817809825225,0.4649229271527,0.5199778361630356,0.5737056957304625,0.6159225861582223,0.6694448355850375,0.7246065179930734,0.7797450292782919,0.8297341144699559,0.8742749501643661,0.9288166112345522,0.9567435707428236,0.9153711711434154,0.8726552516518984,0.8182192528235475,0.7641985706555512,0.7219525928177486,0.6687655034388329,0.6188462321472588,0.5743047022177863,0.5289069069006671,0.48021733678886935,0.43532840576696064,0.40698270606057285,0.37941718932975643,0.3580709766778667,0.3524698615390349,0.3401531898234511,0.32818764625288743,0.32399502727044194,0.32398834512231645,0.32274351874433194,0.3091577878855811,0.2950930354908321,0.2814423259169745,0.26806941156660713,0.25997580736469983,0.2615074819853458,0.28096460369888066,0.3006508086581192,0.3208997301417065,0.34720615608982586,0.3665845405705932,0.3840698029476086,0.3880645067852706,0.3881917836827977,0.3962948434349416,0.39054968400223933,0.3880761947044591,0.38807253127401964,0.38807253127401964,0.38807253127401964,0.38762343678057887,0.37593346233716396,0.3721708869143918,0.3802293474740752,0.3743497673045275,0.35802478805319726,0.3320259910877428,0.32426427049360074,0.336032752834857,0.36544516814742334,0.3968139935538537,0.4024845005847455,0.38953633369176854,0.3880531762215744,0.3814819781581873,0.3720098764710378,0.3607059771656327,0.33410254714233867,0.29752869955384753,0.26182727512856463,0.24769941168969778,0.2783275108141088,0.3261800131730217,0.37305399295984376,0.4205803089141398,0.47568502038449134,0.5304293147787638,0.5741284100458861,0.6251599945852195,0.6803133301583069,0.7354725392587955,0.78836565206164,0.8261784347422299,0.8564972815399674,0.9070366684808628,0.9489054589901889,0.961608495290688,0.9114753077946229,0.8690875900252149,0.8162685417756124,0.7623903668465792,0.7202291480040288,0.666820992912307,0.6174984370337455,0.5722760601723587,0.5191467914375232,0.47699887098074534,0.43268837844231545,0.38685201133170155,0.35460523163190816,0.33341630274661016,0.3113935368541161,0.30816142956348225,0.31775073280142196,0.32685393461133616,0.33927737359113896,0.34055462217612487,0.3459902514302815,0.3388802257798127,0.32329712562171764,0.3089389677738197
0,1,2,3,4,5,6,7,8,9,10,11,12,13,14,15,16,17,18,19,20,21,22,23,24,25,26,27,28,29,30,31,32,33,34,35,36,37,38,39,40,41,42,43,44,45,46,47,48,49,50,51,52,53,54,55,56,57,58,59,60,61,62,63,64,65,66,67,68,69,70,71,72,73,74,75,76,77,78,79,80,81,82,83,84,85,86,87,88,89,90,91,92,93,94,95,96,97,98,99,100,101,102,103,104,105,106,107,108,109,110,111,112,113,114,115,116,117,118,119,120,121,122,123,124,125,126,127,128,129,130,131,132,133,134,135,136,137,138,139,140,141,142,143,144,145,146,147,148,149,150,151,152,153,154,155,156,157,158,159,160,161,162,163,164,165,166,167,168,169,170,171,172,173,174,175,176,177,178,179,180,181,182,183,184,185,186,187,188,189,190,191,192,193,194,195,196,197,198,199,200,201,202,203,204,205,206,207,208,209,210,211,212,213,214,215,216,217,218,219,220,221,222,223,224,225,226,227,228,229,230,231,232,233,234,235,236,237,238,239,240,241,242,243,244,245,246,247,248,249,250,251,252,253,254
0.18113355626329386,0.18635042627771692,0.18691929059221546,0.1856609291325022,0.18183089661807283,0.1865326985048208,0.1869228052160743,0.1869229753564685,0.1869229753564685,0.18692317461931185,0.18748811684413957,0.19149427644310224,0.18835652501420586,0.19311584539487114,0.19231938940704385,0.18726805689437298,0.18690116384043165,0.18433416258336122,0.18012230002317908,0.17551735341149644,0.17867800719791993,0.18028490897795035,0.18026261349600792,0.17729357798283152,0.16658650869092106,0.14851704938569976,0.130229118633014,0.11012161487347205,0.09121138142212293,0.07001918938568086,0.04898991743419645,0.029661767512256354,0.011651814038556862,0.0,0.005845780297847325,0.01980124987307086,0.034262968946459194,0.04881148241992406,0.06570303364743757,0.08096395194938166,0.09508139512303826,0.10571865708968842,0.1156003797717875,0.1259220349038177,0.13202124704186646,0.13924131741128876,0.14593102187095153,0.15064228270853852,0.16152540890672085,0.17599873393917953,0.19387670614007302,0.21543222179225796,0.24093876963261218,0.2646398628098998,0.2915506509018244,0.3154676612658427,0.34401785124221584,0.3724019732035604,0.3947845955275815,0.41280636909785384,0.43946572870355416,0.46022728707256655,0.48433222337212456,0.5089747086424821,0.5356311664592619,0.5645412511768333,0.5934657576491764,0.6223058318231312,0.6472330560943256,0.6736274162280456,0.7025309155974997,0.731454555608966,0.7595599834185283,0.7832537884406521,0.8115965944436707,0.8405205800181672,0.8694411113704832,0.8967570450702187,0.9209129830069731,0.9495857818843583,0.9784374960835214,1.0,0.9936187175402755,0.9706857715104795,0.9461811000289064,0.9195301498359909,0.8906182414082155,0.8617027567051896,0.8348313787883004,0.8103241157229824,0.781553083459892,0.7526285769875485,0.7237040705152054,0.6947795640428618,0.6658550575705184,0.6369305510981749,0.6080063356154322,0.579538019771201,0.5557606038431211,0.5278638535015767,0.498940886677508,0.47001638020516445,0.4410918737328211,0.41216736726047754,0.38324286078813397,0.35431838454223685,0.3255616904927001,0.3011811165001468,0.2741697526127256,0.24525319636746712,0.21633166280341953,0.1886446313945107,0.16904458140956202,0.18028962771490087,0.1947514027128221,0.2000331892273184,0.20018868606741624,0.20020503976822135,0.20283932066113608,0.20659840730456214,0.20085935603789062,0.1862544097782175,0.17471085581271217,0.17999047981711902,0.18648028098389058,0.18469186600701448,0.18542175562320717,0.18194647006564346,0.18062681204540554,0.18537568085982903,0.18184716573196824,0.1802934098250204,0.1802901074154184,0.1802901074154184,0.18024628501708628,0.17690530443070362,0.17661291490867392,0.17460010047533503,0.1726547601924946,0.16747692987451468,0.16387763806561528,0.1582157470739347,0.15396775317027744,0.15792095506010906,0.16044141133090384,0.16533550366763117,0.18026640940423055,0.18682628443000193,0.18625648360171332,0.17858977671648812,0.16445649617805547,0.14712568612012977,0.1296918264685576,0.111010326483727,0.08996656941937153,0.07061988409081221,0.0522383611059235,0.03496135648493537,0.026333803375710674,0.03574045776832102,0.05143517141590259,0.06449398442693033,0.078898264582696,0.09340770655213748,0.10998991946780756,0.12428779253382372,0.13352329637876248,0.1412873523692324,0.14806478524922984,0.1535061089877643,0.15756887018286392,0.16192011071666967,0.1710120363613814,0.18343391618784555,0.20137385973495237,0.2223946468730471,0.2461370316175444,0.269753491929537,0.2955490719408649,0.3201258972145864,0.34890645250082186,0.37678980575510046,0.40057258135663965,0.4290489427035118,0.45797317292396333,0.4868465344413726,0.5123589703654055,0.5380838674098567,0.561751047541907,0.5829575625934373,0.6110942583224639,0.6348650948157888,0.6628388480565677,0.6917621924282071,0.7204062710852881,0.7444226636042197,0.771907297933458,0.8008274173591774,0.829751923831521,0.8586764303038645,0.8876009367762079,0.9165198966924688,0.94345672772848,0.959104899698813,0.9551455475149546,0.9319670468418457,0.9081961619310568,0.8796413583327334,0.8507175863085341,0.8224565130481594,0.7987506821991148,0.7705756952335461,0.7416518308262816,0.7127273243539389,0.6838028178815954,0.6548783114092518,0.6259538049369084,0.5970358414925745,0.5700326008014047,0.5456327681100102,0.5168886469885843,0.48796414051624093,0.459039634043898,0.43011512757155446,0.4011906210992111,0.37226616065110796,0.3436094801480487,0.3194848901797289,0.29212209958579205,0.2632009566785436,0.23427700057946366,0.2059719557388593,0.18799470733863877,0.19760676135157573,0.20543689662584907,0.20843135168407767,0.2118848850171977,0.2071461028551722,0.20853862559086345,0.2130662634397169,0.20655091233376477,0.1898804449813667,0.17626574989383204,0.18477242245519454,0.19604629823011566,0.20129259684259715,0.20605370027049075,0.20149446830144635,0.2014313589257697,0.20539872294964945,0.20097995811914315,0.20571881265716785,0.2113999286593744,0.21065875279114077,0.20689264305298183
0,1,2,3,4,5,6,7,8,9,10,11,12,13,14,15,16,17,18,19,20,21,22,23,24,25,26,27,28,29,30,31,32,33,34,35,36,37,38,39,40,41,42,43,44,45,46,47,48,49,50,51,52,53,54,55,56,57,58,59,60,61,62,63,64,65,66,67,68,69,70,71,72,73,74,75,76,77,78,79,80,81,82,83,84,85,86,87,88,89,90,91,92,93,94,95,96,97,98,99,100,101,102,103,104,105,106,107,108,109,110,111,112,113,114,115,116,117,118,119,120,121,122,123,124,125,126,127,128,129,130,131,132,133,134,135,136,137,138,139,140,141,142,143,144,145,146,147,148,149,150,151,152,153,154,155,156,157,158,159,160,161,162,163,164,165,166,167,168,169,170,171,172,173,174,175,176,177,178,179,180,181,182,183,184,185,186,187,188,189,190,191,192,193,194,195,196,197,198,199,200,201,202,203,204,205,206,207,208,209,210,211,212,213,214,215,216,217,218,219,220,221,222,223,224,225,226,227,228,229,230,231,232,233,234,235,236,237,238,239,240,241,242,243,244,245,246,247,248,249,250,251,252,253,254
