0,1,2,3,4,5,6,7,8,9,10,11,12,13,14,15,16,17,18,19,20,21,22,23,24,25,26,27,28,29,30,31,32,33,34,35,36,37,38,39,40,41,42,43,44,45,46,47,48,49,50,51,52,53,54,55,56,57,58,59,60,61,62,63,64,65,66,67,68,69,70,71,72,73,74,75,76,77,78,79,80,81,82,83,84,85,86,87,88,89,90,91,92,93,94,95,96,97,98,99,100,101,102,103,104,105,106,107,108,109,110,111,112,113,114,115,116,117,118,119,120,121,122,123,124,125,126,127,128,129,130,131,132,133,134,135,136,137,138,139,140,141,142,143,144,145,146,147,148,149,150,151,152,153,154,155,156,157,158,159,160,161,162,163,164,165,166,167,168,169,170,171,172,173,174,175,176,177,178,179,180,181,182,183,184,185,186,187,188,189,190,191,192,193,194,195,196,197,198,199,200,201,202,203,204,205,206,207,208,209,210,211,212,213,214,215,216,217,218,219,220,221,222,223,224,225,226,227,228,229,230,231,232,233,234,235,236,237,238,239,240,241,242,243,244,245,246,247,248,249,250,251,252,253,254
0.8661999386490334,0.8662467802949282,0.8702323525805612,0.8865721216986521,0.8775672656254428,0.8432045646144343,0.8191769525274532,0.8179973915202056,0.8209356153576811,0.8096440155189722,0.7940176808628313,0.8037284233982945,0.809781264155995,0.7639917286877181,0.6935561753243998,0.6234451901400823,0.5527056149509163,0.48156416740177466,0.4069077816564265,0.33556522809857725,0.2639796358670963,0.19325602677367892,0.15223041702432438,0.20108667196173446,0.2737756015334092,0.3478742460015294,0.42547494476614833,0.5025901246614594,0.5744524318669649,0.6502053583006483,0.7260131091188516,0.7972274419899067,0.8527209205426122,0.8573821910723144,0.8480688235342121,0.8464185694159588,0.8541587318303069,0.8552222849465022,0.8236267419107014,0.7929223502720962,0.7781744766417295,0.7704720147454732,0.7602075636353472,0.7351042417073482,0.7228633560081313,0.733559947341985,0.7186356429346782,0.6618896991442432,0.590335380264628,0.5196285044757846,0.4489315497955356,0.37771940600839193,0.3033690257137036,0.23172133897355807,0.15555988763915907,0.07821972229424756,0.010082477973280102,0.0,0.06553598172477804,0.13720715017869345,0.21314922438093054,0.29081387380799306,0.3681788613024828,0.44060092658801764,0.5155751510533136,0.5930291959626589,0.6659957484859759,0.7387206819057915,0.807739605488721,0.8691998409488441,0.9066460316192225,0.9240539840292558,0.9390168269180318,0.9577252212152515,0.9764091416043587,0.9516584258231887,0.9151260721077649,0.8918838775078516,0.8877641345056143,0.8788243181920813,0.8557307675289122,0.8401328464836771,0.8519099886667519,0.8424636225977177,0.7876314090895865,0.7177107405801094,0.6475475831902441,0.5769737686916846,0.5006078230240779,0.4229745830189565,0.3481119424852175,0.2764541745252098,0.20524049577224002,0.1347943096054951,0.1019144368538617,0.15384321290638625,0.2301881678714307,0.3003195044197058,0.36423769075575485,0.4389565746007298,0.5161389838684268,0.5881405443908142,0.6636787599696815,0.7396898415047181,0.8111708912676846,0.870572276169984,0.8736848370342137,0.8664045388006684,0.8616176035182946,0.8626904674935528,0.8508112842481287,0.818294284391598,0.7955637674267438,0.789133234826722,0.8078854254659807,0.8321057796217249,0.8164998046459478,0.8110973768318418,0.8273359861164687,0.8431298647671525,0.8085492417733365,0.7397087934819767,0.6634152874821208,0.5906977599688067,0.5169514153334226,0.44543962874208043,0.3727745818315281,0.3004437611384009,0.22918343197465774,0.16662942386674895,0.17862800602324602,0.24618231235316201,0.3231060466279324,0.39916318618555024,0.4708744294064754,0.5478434587411266,0.6255165936866033,0.7031910018589197,0.7807103987650076,0.8535859489305214,0.901345204383384,0.8599000560703954,0.7856815695197851,0.7138219888979961,0.6380910841537638,0.5604796337467076,0.4931502889302247,0.508426602673539,0.5787556778002686,0.6508905461263178,0.7215141883617896,0.7906281719205709,0.855897026780908,0.8771916725792864,0.8557911653246221,0.8389057557558156,0.8531360280144121,0.8617622757852196,0.8339343087829173,0.8165321341488548,0.8290289261507918,0.8593120805262423,0.8883840777289319,0.8892457093835379,0.8889764670326786,0.8915592785509378,0.9012995562197063,0.9008630824138256,0.8473456811991048,0.7764597360278863,0.7004664031636288,0.6249168533133495,0.5530014658698873,0.4814243729585427,0.4151497317412768,0.38227455341838434,0.44015563723264217,0.5152998151029508,0.5864511244706317,0.6569679504475444,0.7222739749633135,0.786943176103377,0.8510823215934881,0.8768694755158658,0.8768871237149632,0.8695255190207859,0.8922505737336938,0.9061020303981259,0.9127956611062785,0.930938236501181,0.9658718359781061,0.9999999999999999,0.9988602859213808,0.9760500034603511,0.9586089016005642,0.9446736514590123,0.9266538149533349,0.884409159457476,0.8283027213263464,0.7603467583370805,0.6875806141861193,0.6147652955821127,0.5385077770889232,0.46724558426259877,0.3996687547774338,0.3384560054935405,0.31512823626960085,0.3750341465574971,0.44643477869093207,0.5228053733104766,0.5970925376143482,0.6675249935369311,0.728984822141835,0.7592649388514549,0.7567874005606311,0.75613675269932,0.7812646766704044,0.7980451053086567,0.8026481810935965,0.8109158848319656,0.8398878339918142,0.8770983941142664,0.8941841545728867,0.8778982217929178,0.8731106667115515,0.877238239457122,0.8849255071111705,0.8836814726772589,0.8310687589682307,0.7601569799812816,0.6848249863325918,0.6071713802858579,0.5294969660997252,0.4518713716706465,0.38615155002824864,0.4094450808155622,0.4801043264148065,0.5519646657414411,0.6220171762043066,0.6934932483896105,0.7645083854679445,0.8223385051264448,0.8401441936038451,0.8267165515989988,0.8181963298554197,0.8366580292164013,0.8483452258409224,0.8441632883142091,0.8462525044326613,0.8769275180242732,0.907821218428403,0.9107280113360993,0.8930646785724453,0.8866912862145643,0.8917989185438125
0,1,2,3,4,5,6,7,8,9,10,11,12,13,14,15,16,17,18,19,20,21,22,23,24,25,26,27,28,29,30,31,32,33,34,35,36,37,38,39,40,41,42,43,44,45,46,47,48,49,50,51,52,53,54,55,56,57,58,59,60,61,62,63,64,65,66,67,68,69,70,71,72,73,74,75,76,77,78,79,80,81,82,83,84,85,86,87,88,89,90,91,92,93,94,95,96,97,98,99,100,101,102,103,104,105,106,107,108,109,110,111,112,113,114,115,116,117,118,119,120,121,122,123,124,125,126,127,128,129,130,131,132,133,134,135,136,137,138,139,140,141,142,143,144,145,146,147,148,149,150,151,152,153,154,155,156,157,158,159,160,161,162,163,164,165,166,167,168,169,170,171,172,173,174,175,176,177,178,179,180,181,182,183,184,185,186,187,188,189,190,191,192,193,194,195,196,197,198,199,200,201,202,203,204,205,206,207,208,209,210,211,212,213,214,215,216,217,218,219,220,221,222,223,224,225,226,227,228,229,230,231,232,233,234,235,236,237,238,239,240,241,242,243,244,245,246,247,248,249,250,251,252,253,254
0.7786413536299619,0.7776597390997018,0.7884242602183513,0.7842543933835682,0.7886011974989202,0.8048183547959087,0.7993865908172275,0.7876970827840641,0.7394444189156675,0.6651907362633152,0.5903685042660327,0.5202632458342613,0.4459034043541186,0.3718153499235097,0.3016158798006861,0.22814773687870865,0.16532725930455788,0.16818376672255958,0.232542545400718,0.3073011048936612,0.3829170390488504,0.4569615564579204,0.5272035826621062,0.602218546735322,0.6778452940151549,0.7534623785937777,0.8236228748717076,0.8248368537045567,0.7798384511812184,0.7522808465663313,0.7243156694704582,0.7013235311040364,0.6967716822942471,0.6995106443549479,0.7191799245457082,0.7522754304183694,0.7613869986389659,0.7521965621179982,0.765554744756447,0.7695810839780204,0.7721884626312636,0.7886665143214457,0.7792712736612708,0.7262647140922076,0.6606498854638965,0.5904795598756871,0.5167633325538381,0.44302529589725775,0.37262012945779116,0.2975661809141214,0.22555577411435507,0.15978500152862635,0.15160734990669572,0.21412655020174293,0.28926986315032405,0.3629789459008606,0.4334092841318922,0.5085765062993846,0.5842037935854292,0.6598311689683649,0.735032101959713,0.8017368022723081,0.8127006664440384,0.7778496349063571,0.7461697652227486,0.7156797983279042,0.6844131438293914,0.671293768499263,0.6810106128210662,0.7122484185645979,0.753180430940948,0.7733633791574646,0.7693979252008849,0.775723205101291,0.7871962302953945,0.7729450832858817,0.7114818015451623,0.6397660236078373,0.5642547299008771,0.4886325531845111,0.4143499262846944,0.34962206095088283,0.28946826668556375,0.22774599291216419,0.16496104816380724,0.17118508591530174,0.23747230252330326,0.3098924538937157,0.3854575247878385,0.4610852765863905,0.536473166306134,0.6074820979356363,0.6804145083813371,0.756003671549329,0.8307573003367896,0.8687107745696971,0.8219445536547161,0.7788806776244195,0.7426446914190139,0.7104548619372186,0.6825234976724495,0.6761588958028328,0.6962122081997437,0.7331070442460297,0.761845672944339,0.7701221147834638,0.7586730683723064,0.749005345065501,0.7732641216308878,0.7996216363287436,0.8049242177010307,0.7896195003607918,0.7925820793081351,0.799374254449603,0.7898712450989758,0.8010360597277528,0.8193916264729075,0.8080094523827406,0.7832092613525061,0.7290459624019012,0.659605674024621,0.5856777997452889,0.5155969082273448,0.44099086039315744,0.36674876971542775,0.29659143684465467,0.22178749693849736,0.1497315696489186,0.07826446168214923,0.014718301008076862,0.0,0.06147598106943769,0.13698747038845388,0.21260065511389364,0.28636341333779886,0.35675771458560784,0.431906641159956,0.5075338846485318,0.5831616783183251,0.6587894670133188,0.7338461833033723,0.7775288459978575,0.7271688402887697,0.651941264389682,0.5763183711873261,0.5020298066599935,0.45065707192747334,0.4900527519335511,0.5635819266473137,0.6324932222656614,0.6948760444415472,0.7600381730976911,0.8081249786773055,0.8297536212850714,0.8460414860652354,0.8340278232600029,0.817186256458551,0.8244080689395765,0.8227935240950777,0.8154662516974143,0.8273544447176306,0.8271287579680304,0.803865846529735,0.778003926386261,0.7846768268603972,0.793933605781481,0.7825163753740187,0.752805112240301,0.7174203477665448,0.6993714047148007,0.7164270364031158,0.7449803811233819,0.7784304953716279,0.8181681926416251,0.8722281683781794,0.9376005490610844,0.9986550077985641,0.9961486089568685,0.9306614211144304,0.859798291461022,0.7844388568581042,0.7091130774534498,0.6383046458674306,0.5663467605336692,0.5373596931298037,0.5973911188055248,0.6678079181778771,0.7388662181071424,0.8006387701257573,0.8178966519532263,0.809783811746762,0.7952119883745039,0.8002323581977693,0.7981847070192449,0.771366965979507,0.7324332155845965,0.7047954307984283,0.7010371849012742,0.7251609959114731,0.7575665944727978,0.7881356915786428,0.8250041951032434,0.8818671586114337,0.9486474333589854,1.0,0.9763575240154974,0.9060123867377781,0.8304407438410193,0.7548129501712244,0.6791851565014295,0.6035868370338262,0.5323285917077996,0.5173673701325283,0.5830934201489082,0.6533375301380491,0.7251317918234148,0.790007066626994,0.8207587478120146,0.8101049058411305,0.7943839948313605,0.7946044304871167,0.7819739632849834,0.7818121006230865,0.7842829042159931,0.7577817139313829,0.7284069587986814,0.7228563233028871,0.7239185646435986,0.7476593054428557,0.7751838541646061,0.8055914452274564,0.8598956747777564,0.9253375024535677,0.9846757090654756,0.9763125594209565,0.9095448691226098,0.8387770360939151,0.7634474818910622,0.6879117028750745,0.6158580373711071,0.5442096426997525,0.48897266663910893,0.52966128893848,0.5997916414718327,0.6723545580056904,0.7420867901119104,0.8024554259605674,0.8179776292454974,0.8282946112377045,0.8297566523513429,0.8113483378050432,0.8087361131402226,0.8115529217786328,0.8001100451537992,0.805176556998557
0,1,2,3,4,5,6,7,8,9,10,11,12,13,14,15,16,17,18,19,20,21,22,23,24,25,26,27,28,29,30,31,32,33,34,35,36,37,38,39,40,41,42,43,44,45,46,47,48,49,50,51,52,53,54,55,56,57,58,59,60,61,62,63,64,65,66,67,68,69,70,71,72,73,74,75,76,77,78,79,80,81,82,83,84,85,86,87,88,89,90,91,92,93,94,95,96,97,98,99,100,101,102,103,104,105,106,107,108,109,110,111,112,113,114,115,116,117,118,119,120,121,122,123,124,125,126,127,128,129,130,131,132,133,134,135,136,137,138,139,140,141,142,143,144,145,146,147,148,149,150,151,152,153,154,155,156,157,158,159,160,161,162,163,164,165,166,167,168,169,170,171,172,173,174,175,176,177,178,179,180,181,182,183,184,185,186,187,188,189,190,191,192,193,194,195,196,197,198,199,200,201,202,203,204,205,206,207,208,209,210,211,212,213,214,215,216,217,218,219,220,221,222,223,224,225,226,227,228,229,230,231,232,233,234,235,236,237,238,239,240,241,242,243,244,245,246,247,248,249,250,251,252,253,254
0.7639868125946911,0.7277304128289535,0.6778078882630001,0.6407526895517672,0.6411001612446174,0.6509291900785366,0.6575173079522303,0.6700564479620845,0.6953807514409429,0.7134802979684389,0.6799500073018048,0.6288237934618879,0.5883911623337656,0.567931883416438,0.5723643814104205,0.5770715679360876,0.5727383044723999,0.5796573910256924,0.5849679045390528,0.5921845389709115,0.5967199942675139,0.5888476477562277,0.5898924508742716,0.5889674157172191,0.5813860108574378,0.5640042774552656,0.5595556461379554,0.5516500304005099,0.5566584717452219,0.5640265419491002,0.5534818538897475,0.5049504582471511,0.44314212329061164,0.37804743366907245,0.3216272695315745,0.24546332746348165,0.16457819110426763,0.08957660633250675,0.023619317409383722,0.023642950206348656,0.07817044577673493,0.145319054009037,0.20257931568105736,0.2759015205060482,0.3568160046595146,0.43785011114202277,0.5188487157775661,0.5959190294737886,0.6689452248895331,0.7495783953376178,0.8229086341053327,0.8121704342848663,0.7518972176097503,0.7048489041485517,0.6614662733104488,0.6114802451366366,0.5759801279853463,0.565316214472676,0.5736797921075549,0.5851145270405294,0.6016292225730613,0.625084092075098,0.6334706086409758,0.594925630712718,0.5463077492484423,0.5022531261825434,0.48619692003620685,0.4921701479832925,0.49131572378270816,0.4880888633844316,0.49554671287767027,0.5105393888358514,0.5181635051578006,0.5190768371740844,0.5147286848440813,0.5175832521868948,0.5207150734052177,0.5263141021167297,0.5284383644186987,0.5291584185569957,0.5357847101814837,0.5500711860453784,0.5748464315997883,0.592965024605494,0.5628175007760123,0.4971402965250671,0.4256966852613848,0.3454404387665442,0.2644443282664337,0.18767207717491763,0.11444828003404428,0.03890495565439389,0.0,0.04290530003329218,0.11962348108917209,0.20050044186136184,0.2753931590663701,0.35041824215576134,0.4313356941465365,0.5113858780646254,0.5761510416173357,0.6493444804366515,0.7223378434988552,0.7993074681502663,0.8678986390155652,0.8462557779394673,0.7967401387712121,0.756098070435999,0.7008629051515096,0.6566728300277025,0.6386829125697857,0.637763878255758,0.6538501724773211,0.6695591416396991,0.6949149659046241,0.7098406662464312,0.6773182977190371,0.631370338927661,0.5875072885781849,0.558693594723344,0.5546766308328759,0.5628849358266688,0.5697398383291445,0.5753932923452592,0.5690965691037242,0.5800272023589756,0.5890862665957917,0.5898121259419753,0.5996248550094267,0.5983662974590418,0.5977270749320458,0.6016194688083707,0.6102196051328055,0.6490521011505117,0.6546659967284811,0.6467882685255142,0.6381771206469731,0.6426986817914613,0.6433503150065567,0.6440858555834956,0.644768643185655,0.6297632288012651,0.6227214780788444,0.6181007888127965,0.6093214594836023,0.6083631769465105,0.6014926570803096,0.6032314798368339,0.6353184195270716,0.6842486148859197,0.7288244460603241,0.7491060112938515,0.7344357680651861,0.7052797021120387,0.6877420926893434,0.6740274303008276,0.6786691606122037,0.7031190255060147,0.7611012042170597,0.8119337457781084,0.8471547599162328,0.903032831616466,0.9543451174971627,1.0,0.9744258283530605,0.9039815844237302,0.8241218764171938,0.7520373211531202,0.6774308345548823,0.6147274406971479,0.5364291151096672,0.4573639451706264,0.4294197261233583,0.4907104891014902,0.560101141263663,0.616640798414716,0.6258671285125632,0.612263408590322,0.5883958008536165,0.5773035864791809,0.5695589451882914,0.5714652125257533,0.5728260500135405,0.5623716772063492,0.5608673727120785,0.5600897189004368,0.5647658738818484,0.558863373814465,0.5483977597350367,0.5312538173745347,0.5324686483700038,0.5352839449806857,0.5286990344267761,0.547923506901357,0.5992705516750836,0.6466319527997819,0.6806441482850913,0.6748876888073103,0.6490796297715824,0.6283051756724634,0.6183426978156756,0.6109612219419636,0.6163896641566087,0.6477811092882395,0.6987764638840859,0.7419681310199726,0.7885896664341967,0.8500651323548691,0.9255867002952276,0.9878900512640909,0.9895662538375296,0.9244432385002503,0.8513679006000219,0.7706955634282768,0.6919074682025808,0.6200384710874762,0.5399803342915066,0.45894791552293523,0.38005576583248124,0.3619668669391001,0.4253730508855591,0.49470725821516326,0.5588287562276442,0.5920285369114549,0.6105880545447651,0.6040371057862681,0.5931878429332453,0.5977420453405111,0.6038246005741819,0.622793710878998,0.634977861380579,0.6366612451075628,0.629419575033511,0.6366884745596084,0.6343572341502379,0.6247343233960101,0.624709839888633,0.6156339966703488,0.6162593520299349,0.6224044287619264,0.607266911480687,0.6196467475035732,0.661215046609803,0.7077723150701489,0.7489841084394397,0.7550248158694259,0.7288485093761929,0.7040113356600797,0.6922629052400762,0.685709414299287,0.6852840667472311,0.7255266619427241,0.7712877447243751,0.8109260269258765,0.8624313200108147
0,1,2,3,4,5,6,7,8,9,10,11,12,13,14,15,16,17,18,19,20,21,22,23,24,25,26,27,28,29,30,31,32,33,34,35,36,37,38,39,40,41,42,43,44,45,46,47,48,49,50,51,52,53,54,55,56,57,58,59,60,61,62,63,64,65,66,67,68,69,70,71,72,73,74,75,76,77,78,79,80,81,82,83,84,85,86,87,88,89,90,91,92,93,94,95,96,97,98,99,100,101,102,103,104,105,106,107,108,109,110,111,112,113,114,115,116,117,118,119,120,121,122,123,124,125,126,127,128,129,130,131,132,133,134,135,136,137,138,139,140,141,142,143,144,145,146,147,148,149,150,151,152,153,154,155,156,157,158,159,160,161,162,163,164,165,166,167,168,169,170,171,172,173,174,175,176,177,178,179,180,181,182,183,184,185,186,187,188,189,190,191,192,193,194,195,196,197,198,199,200,201,202,203,204,205,206,207,208,209,210,211,212,213,214,215,216,217,218,219,220,221,222,223,224,225,226,227,228,229,230,231,232,233,234,235,236,237,238,239,240,241,242,243,244,245,246,247,248,249,250,251,252,253,254
0.7639868125946911,0.7277304128289535,0.6778078882630001,0.6407526895517672,0.6411001612446174,0.6509291900785366,0.6575173079522303,0.6700564479620845,0.6953807514409429,0.7134802979684389,0.6799500073018048,0.6288237934618879,0.5883911623337656,0.567931883416438,0.5723643814104205,0.5770715679360876,0.5727383044723999,0.5796573910256924,0.5849679045390528,0.5921845389709115,0.5967199942675139,0.5888476477562277,0.5898924508742716,0.5889674157172191,0.5813860108574378,0.5640042774552656,0.5595556461379554,0.5516500304005099,0.5566584717452219,0.5640265419491002,0.5534818538897475,0.5049504582471511,0.44314212329061164,0.37804743366907245,0.3216272695315745,0.24546332746348165,0.16457819110426763,0.08957660633250675,0.023619317409383722,0.023642950206348656,0.07817044577673493,0.145319054009037,0.20257931568105736,0.2759015205060482,0.3568160046595146,0.43785011114202277,0.5188487157775661,0.5959190294737886,0.6689452248895331,0.7495783953376178,0.8229086341053327,0.8121704342848663,0.7518972176097503,0.7048489041485517,0.6614662733104488,0.6114802451366366,0.5759801279853463,0.565316214472676,0.5736797921075549,0.5851145270405294,0.6016292225730613,0.625084092075098,0.6334706086409758,0.594925630712718,0.5463077492484423,0.5022531261825434,0.48619692003620685,0.4921701479832925,0.49131572378270816,0.4880888633844316,0.49554671287767027,0.5105393888358514,0.5181635051578006,0.5190768371740844,0.5147286848440813,0.5175832521868948,0.5207150734052177,0.5263141021167297,0.5284383644186987,0.5291584185569957,0.5357847101814837,0.5500711860453784,0.5748464315997883,0.592965024605494,0.5628175007760123,0.4971402965250671,0.4256966852613848,0.3454404387665442,0.2644443282664337,0.18767207717491763,0.11444828003404428,0.03890495565439389,0.0,0.04290530003329218,0.11962348108917209,0.20050044186136184,0.2753931590663701,0.35041824215576134,0.4313356941465365,0.5113858780646254,0.5761510416173357,0.6493444804366515,0.7223378434988552,0.7993074681502663,0.8678986390155652,0.8462557779394673,0.7967401387712121,0.756098070435999,0.7008629051515096,0.6566728300277025,0.6386829125697857,0.637763878255758,0.6538501724773211,0.6695591416396991,0.6949149659046241,0.7098406662464312,0.6773182977190371,0.631370338927661,0.5875072885781849,0.558693594723344,0.5546766308328759,0.5628849358266688,0.5697398383291445,0.5753932923452592,0.5690965691037242,0.5800272023589756,0.5890862665957917,0.5898121259419753,0.5996248550094267,0.5983662974590418,0.5977270749320458,0.6016194688083707,0.6102196051328055,0.6490521011505117,0.6546659967284811,0.6467882685255142,0.6381771206469731,0.6426986817914613,0.6433503150065567,0.6440858555834956,0.644768643185655,0.6297632288012651,0.6227214780788444,0.6181007888127965,0.6093214594836023,0.6083631769465105,0.6014926570803096,0.6032314798368339,0.6353184195270716,0.6842486148859197,0.7288244460603241,0.7491060112938515,0.7344357680651861,0.7052797021120387,0.6877420926893434,0.6740274303008276,0.6786691606122037,0.7031190255060147,0.7611012042170597,0.8119337457781084,0.8471547599162328,0.903032831616466,0.9543451174971627,1.0,0.9744258283530605,0.9039815844237302,0.8241218764171938,0.7520373211531202,0.6774308345548823,0.6147274406971479,0.5364291151096672,0.4573639451706264,0.4294197261233583,0.4907104891014902,0.560101141263663,0.616640798414716,0.6258671285125632,0.612263408590322,0.5883958008536165,0.5773035864791809,0.5695589451882914,0.5714652125257533,0.5728260500135405,0.5623716772063492,0.5608673727120785,0.5600897189004368,0.5647658738818484,0.558863373814465,0.5483977597350367,0.5312538173745347,0.5324686483700038,0.5352839449806857,0.5286990344267761,0.547923506901357,0.5992705516750836,0.6466319527997819,0.6806441482850913,0.6748876888073103,0.6490796297715824,0.6283051756724634,0.6183426978156756,0.6109612219419636,0.6163896641566087,0.6477811092882395,0.6987764638840859,0.7419681310199726,0.7885896664341967,0.8500651323548691,0.9255867002952276,0.9878900512640909,0.9895662538375296,0.9244432385002503,0.8513679006000219,0.7706955634282768,0.6919074682025808,0.6200384710874762,0.5399803342915066,0.45894791552293523,0.38005576583248124,0.3619668669391001,0.4253730508855591,0.49470725821516326,0.5588287562276442,0.5920285369114549,0.6105880545447651,0.6040371057862681,0.5931878429332453,0.5977420453405111,0.6038246005741819,0.622793710878998,0.634977861380579,0.6366612451075628,0.629419575033511,0.6366884745596084,0.6343572341502379,0.6247343233960101,0.624709839888633,0.6156339966703488,0.6162593520299349,0.6224044287619264,0.607266911480687,0.6196467475035732,0.661215046609803,0.7077723150701489,0.7489841084394397,0.7550248158694259,0.7288485093761929,0.7040113356600797,0.6922629052400762,0.685709414299287,0.6852840667472311,0.7255266619427241,0.7712877447243751,0.8109260269258765,0.8624313200108147
0,1,2,3,4,5,6,7,8,9,10,11,12,13,14,15,16,17,18,19,20,21,22,23,24,25,26,27,28,29,30,31,32,33,34,35,36,37,38,39,40,41,42,43,44,45,46,47,48,49,50,51,52,53,54,55,56,57,58,59,60,61,62,63,64,65,66,67,68,69,70,71,72,73,74,75,76,77,78,79,80,81,82,83,84,85,86,87,88,89,90,91,92,93,94,95,96,97,98,99,100,101,102,103,104,105,106,107,108,109,110,111,112,113,114,115,116,117,118,119,120,121,122,123,124,125,126,127,128,129,130,131,132,133,134,135,136,137,138,139,140,141,142,143,144,145,146,147,148,149,150,151,152,153,154,155,156,157,158,159,160,161,162,163,164,165,166,167,168,169,170,171,172,173,174,175,176,177,178,179,180,181,182,183,184,185,186,187,188,189,190,191,192,193,194,195,196,197,198,199,200,201,202,203,204,205,206,207,208,209,210,211,212,213,214,215,216,217,218,219,220,221,222,223,224,225,226,227,228,229,230,231,232,233,234,235,236,237,238,239,240,241,242,243,244,245,246,247,248,249,250,251,252,253,254
0.2515957383266323,0.3005819073010132,0.3849433585025648,0.4041496905774604,0.33954332983104285,0.2785146431203076,0.2659095857287661,0.32723306239454697,0.3507824060158513,0.3250856968459419,0.3265144077793165,0.28430120056246944,0.252082352540695,0.23325968713352996,0.17489319675740056,0.10196443157099733,0.03371727307120165,0.0,0.025618021187830076,0.10063943496755146,0.18296802088470354,0.25568627952104483,0.3376994452826674,0.42885662023184334,0.5254365889636614,0.619379922656655,0.7020362656170525,0.7739397985811154,0.821560463081541,0.8339307022670392,0.8239320582279306,0.819026235024432,0.8189799960942463,0.8189803350737987,0.8196354777464854,0.829329396085619,0.8113422713081997,0.7673009488859974,0.7501931552786019,0.7900710454127662,0.8457276304203858,0.8741705619890232,0.8955405408482289,0.8547124424878518,0.7724162767556435,0.6703111423602075,0.5671967936917257,0.4615623350129239,0.3704613902451461,0.34323476517846885,0.3786075025263904,0.35159878683664747,0.2921206410917945,0.22601636035461192,0.16192219759706816,0.08925983171984875,0.01875843915144637,0.0025624548191380825,0.05245178047663557,0.13825031977664715,0.22681898260523914,0.3132963560629567,0.40531567368572263,0.49786826381094684,0.5937183346990613,0.6801656516282457,0.7563585884971333,0.8090842162648388,0.8200039141210254,0.818077778548651,0.8067500169243602,0.7944935486201699,0.7959160025533571,0.7952166446026596,0.7991014916863488,0.7749240548716356,0.7447041764375522,0.7665102321536583,0.8263456911821199,0.866352842773539,0.8991171833454321,0.8976481698235452,0.8133283873625516,0.7220911542598385,0.6313469971219585,0.5306196174604847,0.42732308992789214,0.33783703332815573,0.31824677887317643,0.3589798765540717,0.34433042645126255,0.29054356210001187,0.2281581856300865,0.16262201550448374,0.09060465771204895,0.03664942572543328,0.0405408188116827,0.10746236723337654,0.19254245937539194,0.27971001364250325,0.3708507188940411,0.46188007696232614,0.5619872956226066,0.6507771213002966,0.7319945744408294,0.7965732766100775,0.8256304492291542,0.8391335337096213,0.839451625737639,0.8415333286036004,0.8348721965943677,0.8346748986185379,0.8374130727386282,0.8243835866138691,0.7856370963811403,0.778282474115005,0.8264552504069429,0.8747150970207667,0.9023798170933977,0.9261981563778003,0.8630957924097933,0.7788582226003524,0.6904490408180299,0.581461830317521,0.4787686895357517,0.3862386066986154,0.361240425056915,0.409091912351248,0.435711369860444,0.4675197700804481,0.5683466508042878,0.6694272116488689,0.7623644543766708,0.8505859721377345,0.9416131812357644,0.9993793999785097,0.9757692824933191,0.9362037606590454,0.90816250399901,0.8620392429559178,0.8355516035380917,0.8676934161017495,0.8872110813376097,0.8879004427584314,0.8873569396280496,0.8893435202366238,0.8963459779652001,0.897431551489924,0.8891985629376888,0.8647109050437862,0.8187289917962057,0.7451025143626042,0.6552348986816696,0.5667914755946173,0.47568541411498577,0.3851670523650923,0.2929421994731407,0.20843885148992847,0.11927910825481502,0.09480903639540417,0.1538259107594957,0.22429098999446984,0.28997987553876303,0.34929931890351007,0.40406766850689024,0.42758146308402933,0.40323369635061157,0.4182491844201759,0.5156547956641204,0.618213413333137,0.7104025951784996,0.7907690430673253,0.8827028080800781,0.9729722492051702,0.9790724028709303,0.935245307981424,0.9003767509987131,0.8579257057472573,0.8052798227165803,0.8159308712158975,0.8555713486603378,0.8561136375277436,0.8426484659916662,0.8450236751855611,0.8564031772806264,0.8675139006137083,0.8731070389643811,0.8770375463765423,0.8450571749298921,0.7899023942913335,0.7097289985241009,0.6217826472664396,0.536252510613783,0.4427390631272363,0.3513559748238553,0.26876663164515957,0.19594744716371792,0.1012295200064095,0.05575051569484146,0.11042922258283028,0.18680951859404304,0.2531811584160941,0.31729807059823667,0.38137996510239347,0.42777946860155636,0.4284139990888671,0.41135363275164716,0.49545738196304967,0.5927097663458092,0.677457828227352,0.7757895615008983,0.8594739553090625,0.9442933469344856,0.9830613426596857,0.9500961031352864,0.9121348084236378,0.8813054844933834,0.8282693898852669,0.8117484336744636,0.8515903091302626,0.8712754742933315,0.8637285864327993,0.8567471486013574,0.8610080743450084,0.8653109122679621,0.8657956571391545,0.8713265544696913,0.8777502393473013,0.8740105855499003,0.8394577791632689,0.7840944045616847,0.7038303181029071,0.6124759556416874,0.5227395330200757,0.43374836605164147,0.34141683326317507,0.25290305073536734,0.165105028500522,0.08284574669227807,0.07424104047797875,0.13797628179600396,0.21296584214976422,0.2755121313721034,0.3429248870330941,0.42802673993660134,0.44585381417643344,0.4411411104559346,0.42800852093936737,0.4486447747362843,0.5451250669500767,0.6495179081284213,0.7403740423133844,0.8211031258288903,0.9216068057705158,1.0
0,1,2,3,4,5,6,7,8,9,10,11,12,13,14,15,16,17,18,19,20,21,22,23,24,25,26,27,28,29,30,31,32,33,34,35,36,37,38,39,40,41,42,43,44,45,46,47,48,49,50,51,52,53,54,55,56,57,58,59,60,61,62,63,64,65,66,67,68,69,70,71,72,73,74,75,76,77,78,79,80,81,82,83,84,85,86,87,88,89,90,91,92,93,94,95,96,97,98,99,100,101,102,103,104,105,106,107,108,109,110,111,112,113,114,115,116,117,118,119,120,121,122,123,124,125,126,127,128,129,130,131,132,133,134,135,136,137,138,139,140,141,142,143,144,145,146,147,148,149,150,151,152,153,154,155,156,157,158,159,160,161,162,163,164,165,166,167,168,169,170,171,172,173,174,175,176,177,178,179,180,181,182,183,184,185,186,187,188,189,190,191,192,193,194,195,196,197,198,199,200,201,202,203,204,205,206,207,208,209,210,211,212,213,214,215,216,217,218,219,220,221,222,223,224,225,226,227,228,229,230,231,232,233,234,235,236,237,238,239,240,241,242,243,244,245,246,247,248,249,250,251,252,253,254
0.2837820300675944,0.35034998215551816,0.42064633138021723,0.48934971647889747,0.5605766496398946,0.617304349707895,0.6667462568080617,0.7002451637612558,0.6898223577652083,0.697334248407898,0.7647891014387597,0.8335324694711593,0.8978967068135632,0.9013073257426686,0.8564301755474061,0.8272583705805511,0.7920012017453725,0.7477246288281658,0.7236976825046983,0.736241096385856,0.7566162313002724,0.7760255195456186,0.7752821423516473,0.787392737438558,0.7918734191581536,0.7776082913712611,0.7727064360411785,0.7929845818656487,0.7909289081888738,0.7536033244247411,0.7013956267069944,0.6346923087951809,0.5655382776713632,0.4958497366419028,0.4237376862426201,0.3547399938393482,0.28477435598403333,0.21248761440486028,0.14017153009457242,0.07237906799823471,0.059896958203499356,0.118003389423772,0.1894000975327029,0.2579856002014188,0.32844343091314454,0.4007446279176584,0.4710517395521472,0.5311589578951454,0.6000504703272497,0.6712423413527061,0.7393702860649888,0.8103861944227565,0.8780803355769805,0.9243109434689453,0.8882066961878506,0.8475346382371017,0.8205502379534423,0.7819984608996463,0.7444647773200957,0.7343746452603597,0.737841303391943,0.7486524593244315,0.73862732916851,0.7422726805798402,0.7601184868805155,0.7560871362979639,0.7556583450954217,0.7750881233494307,0.7710795643875048,0.7312402808492986,0.6650782046334943,0.5957759276029053,0.5253319902408211,0.45681431814007833,0.3850471814769365,0.3165269465581564,0.24598007121330004,0.17403230431021346,0.10568816224767555,0.03617713769959652,0.0,0.04977400881094193,0.11443944201006898,0.17320496997775245,0.23800687922086097,0.30955494193864486,0.3815736079114588,0.4500250133202658,0.5206672456316357,0.5929013592521751,0.6624272593919496,0.7318380293295487,0.8035643270807328,0.871611873486298,0.9371593462879743,0.9517426895741304,0.8980456421305391,0.8555103492149535,0.8332726935850748,0.7955679817145778,0.7557085222443071,0.7482559929267018,0.7522772146568226,0.7556169534951236,0.7461104603122878,0.7549522971203744,0.755909317358851,0.761865510697543,0.7856136367022408,0.7804868226241619,0.7347693053134668,0.667374309221094,0.5972616158631394,0.5287915955322031,0.45825398683768015,0.3882039665587892,0.3192985955120323,0.2471442360974734,0.17595245929052902,0.10782317538763395,0.039325342685983644,0.022753204968209928,0.07952119983307784,0.14973373322258468,0.21779204377938435,0.2892763547879359,0.3616080810226574,0.4339433275744363,0.5062785741262139,0.5785453263865022,0.6482368683710861,0.7174872090286876,0.7893946543681509,0.8577252656209645,0.9195571368044774,0.9165425858209125,0.8696096001519454,0.8460378926041731,0.8134146933542733,0.7705681904185538,0.7427609412270703,0.7554832710284218,0.7827037260497186,0.8252848536466278,0.8582053251760865,0.882285972730472,0.933456615425659,0.9845619329728336,0.9714738595927691,0.9056059581196286,0.8374249169425151,0.7666960951072163,0.6981414075098136,0.6276566587100348,0.5561473410795266,0.49332871918590204,0.42800545465204354,0.35606835125575687,0.2845153548981235,0.24891717309821623,0.3034345982674419,0.3746747145075786,0.4427565982746975,0.5142975305174154,0.5837071444672814,0.6531078872631364,0.720325557359549,0.7761284845524863,0.8034363696844399,0.8038315743840404,0.7830311824172054,0.7742333805532595,0.7769142262476699,0.7661896077155891,0.7778942688314345,0.775194397527547,0.7685932758241606,0.7786083180099159,0.8176162461468258,0.8531741299987926,0.875804951241428,0.9246675429168846,0.9851055312419913,0.9964519723891764,0.9415753527735421,0.8805627350711714,0.8170650357129897,0.7450937173370236,0.6727585728386247,0.6004247875533792,0.5286769444166991,0.46055528399895973,0.38932150112779407,0.3184149305547157,0.2927748949349315,0.3504809315967209,0.41936744118576463,0.4914742348760933,0.5612170372132234,0.6303400592780748,0.6996266756006646,0.7616362813295389,0.7903793706289779,0.7983965417978264,0.7861809978355904,0.7739799415857709,0.785009366929583,0.7716574995533833,0.7576880774374283,0.7662000465194051,0.7613312388467268,0.7565998655926138,0.7624752217538044,0.7975867590241735,0.8361252387965866,0.864351427755624,0.9085046998697502,0.9685786271812383,1.0000000000000002,0.9560344093028793,0.889576056956859,0.8209352946070524,0.750036180564627,0.6818652299903201,0.6105544738499048,0.5470420360118593,0.4826372086545391,0.41080482961812215,0.3482455990916633,0.36725359545264313,0.43437631362574414,0.5041990524790296,0.5755304120110561,0.6436111753091422,0.715144435542486,0.7820879819400128,0.8147504976000078,0.815125881861399,0.7981339887634747,0.7953509829326273,0.8124587024235023,0.8087533756111308,0.7963244681079552,0.7968158367614019,0.7840911550243285,0.7604325690799784,0.7459947368647407,0.766503419024646,0.8094039278438049,0.8435732176736254,0.8755431850940855,0.9288846578362843,0.975911826461736,0.9514401271919851,0.8919056526918198
0,1,2,3,4,5,6,7,8,9,10,11,12,13,14,15,16,17,18,19,20,21,22,23,24,25,26,27,28,29,30,31,32,33,34,35,36,37,38,39,40,41,42,43,44,45,46,47,48,49,50,51,52,53,54,55,56,57,58,59,60,61,62,63,64,65,66,67,68,69,70,71,72,73,74,75,76,77,78,79,80,81,82,83,84,85,86,87,88,89,90,91,92,93,94,95,96,97,98,99,100,101,102,103,104,105,106,107,108,109,110,111,112,113,114,115,116,117,118,119,120,121,122,123,124,125,126,127,128,129,130,131,132,133,134,135,136,137,138,139,140,141,142,143,144,145,146,147,148,149,150,151,152,153,154,155,156,157,158,159,160,161,162,163,164,165,166,167,168,169,170,171,172,173,174,175,176,177,178,179,180,181,182,183,184,185,186,187,188,189,190,191,192,193,194,195,196,197,198,199,200,201,202,203,204,205,206,207,208,209,210,211,212,213,214,215,216,217,218,219,220,221,222,223,224,225,226,227,228,229,230,231,232,233,234,235,236,237,238,239,240,241,242,243,244,245,246,247,248,249,250,251,252,253,254
0.6338477630247916,0.6185250778034765,0.6242987723186113,0.6973988182924513,0.793508892115856,0.8601617678183966,0.8007143789424065,0.7029715102564995,0.6104741115896863,0.5248770647088441,0.4558007879623194,0.39529192413419345,0.32043335983821497,0.24416645848977248,0.17155057750932312,0.09561718630735117,0.029497392951031154,0.02415893398421609,0.08893381479470497,0.17074252895187625,0.25809895934260685,0.3441765096718763,0.43491519032141257,0.5183857968599459,0.5769061548555996,0.5987857512744452,0.5741751292534936,0.5241950092720473,0.5266233411954397,0.5667171464876755,0.6068078308512583,0.6207110265588645,0.6267804664890302,0.6006017705154791,0.6502190644700758,0.7450475927279978,0.8383245828916617,0.8412021992697691,0.7474626603942269,0.6510729456061459,0.5570238378248371,0.4842924635899988,0.4276485771276075,0.35473175613690544,0.2810733675531505,0.20838531967259577,0.1299683833098808,0.05784699779754776,0.01875327158387785,0.055205939874750865,0.13042929526828706,0.21437179791127825,0.30496791225783415,0.3977641637880551,0.48062662342290263,0.5481016021555818,0.5777723677844797,0.5566561251046358,0.5035472719553384,0.4794467039926733,0.5272355720338,0.5752524036146114,0.5936214168258611,0.6000924263422021,0.5854904576657733,0.5828977804770612,0.6610525759791068,0.7570580833617848,0.8200063792576002,0.7485459898950322,0.6486715889119341,0.5582918550839948,0.4804059086765333,0.41978360659344016,0.3548341183825321,0.2892408331352565,0.21314771705996516,0.1354946696128667,0.06457015539553401,0.02085558751383032,0.052058942977191824,0.12479145075546838,0.2149287353322591,0.30580117205875723,0.3909006543144642,0.4725591746273343,0.5396888706259833,0.569767019796239,0.5743272456530657,0.5439416542751032,0.49684549150822477,0.5141465895415802,0.5728768402097715,0.6088479054000677,0.6238763735697197,0.6272386948987991,0.6106181591896971,0.6085427739080531,0.6966564633930004,0.7934860782548334,0.8453846283255064,0.7726781424584357,0.6772771546294649,0.5872842360853938,0.504961182908227,0.44027611256931154,0.37455195013202225,0.29703527216270853,0.22024452118787186,0.14419035530954094,0.0665081749197245,0.0,0.003056688919738537,0.07494136076247693,0.15810358870571428,0.2473362376200845,0.33683047934120025,0.42451299268430676,0.5131331808936159,0.5768288034423485,0.5919109982818611,0.5631427445391401,0.5169148350744233,0.543062601007648,0.598429917258386,0.6466432863694367,0.6800634350998158,0.6573973139792275,0.6096375980533608,0.5802063424431276,0.6151804276370205,0.6359644542513379,0.6232647234310398,0.5675663715855941,0.4878368674612741,0.40501474094230305,0.33118156999903436,0.24619645478942487,0.15529503580271364,0.07050200539131768,0.05232812072128756,0.12013604975011383,0.20170659588646034,0.2787759998021442,0.3535348191364034,0.42618915523669765,0.4890893012214721,0.5569886586850052,0.6474879155408866,0.7440788770055216,0.8441381961993115,0.9397266407268563,0.9737468337420792,0.8984099143789375,0.7941330342835791,0.7114779781979372,0.7042176205586199,0.6741347122085681,0.6588846979636291,0.6501464638294157,0.6148065361485138,0.5692963190159612,0.5697349973304888,0.6111769313784898,0.6144635932616032,0.5988980670538866,0.547412615629105,0.4735317958062346,0.3881610749177913,0.2959634196094907,0.20858027946330426,0.1254480134405389,0.07588418778123174,0.119369353280673,0.19116373917353457,0.26487378442815857,0.3427116411085478,0.4081712904365644,0.47058452615585056,0.5375212925385795,0.6215324083806393,0.7156973943477185,0.8148628058786676,0.9109260640822616,0.9398613424290847,0.8663915765923096,0.7860354179710596,0.697617024917196,0.6629198421306248,0.6518735617209006,0.6351566036731358,0.6289064715156374,0.5933176300935314,0.5476388710697075,0.5606160740913189,0.6037420254812731,0.6188482567999376,0.6008127701816695,0.5488783849610233,0.4697612099994122,0.38180041333785075,0.2945338808737108,0.2077293143412755,0.1251225948013175,0.07290461968183393,0.11537245523800488,0.1889813462600567,0.26929850447868264,0.34283697073345065,0.4143239325977288,0.4796175805858631,0.541211370837245,0.6216531700204562,0.7170937389436505,0.822991195519311,0.926005462319774,0.9988530709656587,0.9631619265232927,0.8703486028700556,0.7706652180841469,0.7017246683865208,0.6847334643205869,0.6560699361929085,0.6415920253284577,0.6072280466384035,0.5770184354458734,0.6015674116818306,0.6349892776349115,0.628503430035598,0.595524991102085,0.5258368540432135,0.44404414328008945,0.35708076935245625,0.2837991737882404,0.2017741912176434,0.11491175456356029,0.06944089139426968,0.11893589972100727,0.1989543636761506,0.27319249008755775,0.345600717248725,0.4186315698452696,0.48163963806429555,0.5485769498779716,0.6360626764980806,0.7343772674840761,0.8222798090391223,0.91314425569086,1.0,0.9950669354392825,0.904689035223456,0.7998657136773222,0.7142065375845474,0.7054627742405346,0.6759660691470373
0,1,2,3,4,5,6,7,8,9,10,11,12,13,14,15,16,17,18,19,20,21,22,23,24,25,26,27,28,29,30,31,32,33,34,35,36,37,38,39,40,41,42,43,44,45,46,47,48,49,50,51,52,53,54,55,56,57,58,59,60,61,62,63,64,65,66,67,68,69,70,71,72,73,74,75,76,77,78,79,80,81,82,83,84,85,86,87,88,89,90,91,92,93,94,95,96,97,98,99,100,101,102,103,104,105,106,107,108,109,110,111,112,113,114,115,116,117,118,119,120,121,122,123,124,125,126,127,128,129,130,131,132,133,134,135,136,137,138,139,140,141,142,143,144,145,146,147,148,149,150,151,152,153,154,155,156,157,158,159,160,161,162,163,164,165,166,167,168,169,170,171,172,173,174,175,176,177,178,179,180,181,182,183,184,185,186,187,188,189,190,191,192,193,194,195,196,197,198,199,200,201,202,203,204,205,206,207,208,209,210,211,212,213,214,215,216,217,218,219,220,221,222,223,224,225,226,227,228,229,230,231,232,233,234,235,236,237,238,239,240,241,242,243,244,245,246,247,248,249,250,251,252,253,254
0.0,0.05967396622266152,0.15899908750941139,0.22802806000448816,0.2938416373831272,0.32881745087699477,0.366715969752335,0.4418018096471541,0.5346084913286724,0.6271788818194124,0.7178242575898106,0.7878424909877437,0.7607903201954165,0.6770135623573723,0.5909880634982003,0.5053454709510312,0.4313224718268982,0.40818919189576874,0.3957155778331227,0.36591357338533204,0.30469980068523883,0.26410615046064523,0.25256327842712833,0.22154660722731867,0.170390549644297,0.165796045555187,0.22685557006068757,0.2655873350530782,0.19442549984713242,0.09814237052187247,0.12287314120441328,0.2367019925390923,0.3676258392831411,0.4995301509436123,0.6307611224019363,0.7102956066759849,0.6297619154391731,0.5115756839576262,0.402335192992584,0.3127267889468257,0.25863861052953396,0.24043200133123,0.24243139216226517,0.2936284400549356,0.373945529099903,0.4624804131454048,0.5549182686265168,0.6510226479564998,0.7404281677223055,0.7476513395577316,0.6723300732689803,0.5778882049101655,0.49753070226051666,0.42750968692081237,0.3755023212002584,0.35432698102413607,0.35717518707067564,0.36154920811207125,0.35634547669233285,0.3140054641272183,0.3000859524256265,0.3092298064022092,0.354812602937685,0.3160474534765956,0.20737242825425772,0.09226068432974444,0.029336713483633314,0.10538705484313793,0.2320820055673476,0.3538497179878113,0.47973484138597744,0.6090584009839626,0.6561604193930362,0.5631190765041607,0.47242569967396664,0.37410666226754863,0.3071003536019745,0.2841101292922108,0.28042481982879686,0.31139535033923016,0.37906220115851497,0.4580469373888909,0.5496975279191658,0.6484594491430258,0.7415362651875435,0.7754468233283061,0.7072841207084455,0.6221537514610369,0.541749723896547,0.46812043321541497,0.4185227150991233,0.4001838362732606,0.41163065308165425,0.40095903173136893,0.39391310922274725,0.39318287183466394,0.3687464894282422,0.32674735080623885,0.35182032288944454,0.4087163458545362,0.3556341715014595,0.2792732284398287,0.17130114697554966,0.1514606438126651,0.25552792386979917,0.3794913298704885,0.5088719471985423,0.5957537762618381,0.5410292213874683,0.4492662956414528,0.34693833935734775,0.28129888836202976,0.25745852907869615,0.2571725425288376,0.2912957938848013,0.35432351518708805,0.44307881571580365,0.538436186817099,0.6315902882215205,0.7072805801832245,0.7410524649058794,0.6772584758144529,0.5967748123152306,0.5095925793271436,0.4470491547651103,0.4157654793156378,0.3914300746040986,0.3885358096178302,0.4075113187362387,0.4399775256648857,0.44490280008693883,0.4663977204148564,0.4867323193082811,0.5436609211731316,0.629450963411966,0.7165248872590899,0.793662008418873,0.8051975058689496,0.7464702559378282,0.6747482686433908,0.5801902277652182,0.48006163107786337,0.39524956031568514,0.3320920276529047,0.3103680922188974,0.3238770163812794,0.3833728763094535,0.48316136263585063,0.6015720135046774,0.7307223111277703,0.8471746022888587,0.9529450572198019,0.9770377471430685,0.8815469009875918,0.7535374996074125,0.6311204383323052,0.5059871238015701,0.38490179435638083,0.37761991119785243,0.4508177492209917,0.47604067618380563,0.41605262375276997,0.38850874420735604,0.4234783625243925,0.4431605158726577,0.45332176196051943,0.46148069823750326,0.46401519191675256,0.4696701682434723,0.5198917958898011,0.5966584190883535,0.6800145001004201,0.7611662001826112,0.8376530179708128,0.834582763044788,0.761736166765624,0.6672289007980723,0.5733410781371671,0.48167826239829914,0.4029862113062723,0.34531025898960976,0.336765441058557,0.3530817641842958,0.414764633973963,0.5190831372390412,0.6314241955355975,0.7475406628390515,0.8629334823021795,0.940726300664454,0.8830154386587199,0.7549678322497217,0.6230931918110518,0.4953883610800327,0.3998148339987395,0.40636154595911433,0.41401160114878577,0.3738096666541866,0.36834672070430763,0.4166873036908374,0.43019586107597707,0.4151151742968784,0.41457956685610275,0.41858473851076017,0.463996841023699,0.5359544678444603,0.6159802261170051,0.7041780618014908,0.7890550595083763,0.8326872344870551,0.7817638827415765,0.6919253360122646,0.5998458320589242,0.5093562529309676,0.4148052377879696,0.3328950823030752,0.29577065793743884,0.3068355758317578,0.3521033044063029,0.44445948142762415,0.5594032586631985,0.6781139092298196,0.7955726946749606,0.9116656303044754,1.0,0.9501810890606701,0.8317121080913377,0.7066307174711284,0.5758237477939265,0.45593308112134645,0.35968092384124395,0.3485377922311903,0.3023654861983629,0.2426351276770724,0.23509962481288893,0.28306491944681156,0.3093057157971417,0.3342370500344636,0.3917228093269962,0.439422745142346,0.4518211274397568,0.48212173865246033,0.5455342689273328,0.6221632411010911,0.714313028333259,0.799096634350895,0.8596063422749562,0.8353070127430744,0.7606360749212104,0.6731329278082727,0.5727904325061277,0.48144299218112563,0.4108468482638572,0.3764879364046587,0.3515091387127538,0.36324705353505093
0,1,2,3,4,5,6,7,8,9,10,11,12,13,14,15,16,17,18,19,20,21,22,23,24,25,26,27,28,29,30,31,32,33,34,35,36,37,38,39,40,41,42,43,44,45,46,47,48,49,50,51,52,53,54,55,56,57,58,59,60,61,62,63,64,65,66,67,68,69,70,71,72,73,74,75,76,77,78,79,80,81,82,83,84,85,86,87,88,89,90,91,92,93,94,95,96,97,98,99,100,101,102,103,104,105,106,107,108,109,110,111,112,113,114,115,116,117,118,119,120,121,122,123,124,125,126,127,128,129,130,131,132,133,134,135,136,137,138,139,140,141,142,143,144,145,146,147,148,149,150,151,152,153,154,155,156,157,158,159,160,161,162,163,164,165,166,167,168,169,170,171,172,173,174,175,176,177,178,179,180,181,182,183,184,185,186,187,188,189,190,191,192,193,194,195,196,197,198,199,200,201,202,203,204,205,206,207,208,209,210,211,212,213,214,215,216,217,218,219,220,221,222,223,224,225,226,227,228,229,230,231,232,233,234,235,236,237,238,239,240,241,242,243,244,245,246,247,248,249,250,251,252,253,254
0.0,0.05967396622266152,0.15899908750941139,0.22802806000448816,0.2938416373831272,0.32881745087699477,0.366715969752335,0.4418018096471541,0.5346084913286724,0.6271788818194124,0.7178242575898106,0.7878424909877437,0.7607903201954165,0.6770135623573723,0.5909880634982003,0.5053454709510312,0.4313224718268982,0.40818919189576874,0.3957155778331227,0.36591357338533204,0.30469980068523883,0.26410615046064523,0.25256327842712833,0.22154660722731867,0.170390549644297,0.165796045555187,0.22685557006068757,0.2655873350530782,0.19442549984713242,0.09814237052187247,0.12287314120441328,0.2367019925390923,0.3676258392831411,0.4995301509436123,0.6307611224019363,0.7102956066759849,0.6297619154391731,0.5115756839576262,0.402335192992584,0.3127267889468257,0.25863861052953396,0.24043200133123,0.24243139216226517,0.2936284400549356,0.373945529099903,0.4624804131454048,0.5549182686265168,0.6510226479564998,0.7404281677223055,0.7476513395577316,0.6723300732689803,0.5778882049101655,0.49753070226051666,0.42750968692081237,0.3755023212002584,0.35432698102413607,0.35717518707067564,0.36154920811207125,0.35634547669233285,0.3140054641272183,0.3000859524256265,0.3092298064022092,0.354812602937685,0.3160474534765956,0.20737242825425772,0.09226068432974444,0.029336713483633314,0.10538705484313793,0.2320820055673476,0.3538497179878113,0.47973484138597744,0.6090584009839626,0.6561604193930362,0.5631190765041607,0.47242569967396664,0.37410666226754863,0.3071003536019745,0.2841101292922108,0.28042481982879686,0.31139535033923016,0.37906220115851497,0.4580469373888909,0.5496975279191658,0.6484594491430258,0.7415362651875435,0.7754468233283061,0.7072841207084455,0.6221537514610369,0.541749723896547,0.46812043321541497,0.4185227150991233,0.4001838362732606,0.41163065308165425,0.40095903173136893,0.39391310922274725,0.39318287183466394,0.3687464894282422,0.32674735080623885,0.35182032288944454,0.4087163458545362,0.3556341715014595,0.2792732284398287,0.17130114697554966,0.1514606438126651,0.25552792386979917,0.3794913298704885,0.5088719471985423,0.5957537762618381,0.5410292213874683,0.4492662956414528,0.34693833935734775,0.28129888836202976,0.25745852907869615,0.2571725425288376,0.2912957938848013,0.35432351518708805,0.44307881571580365,0.538436186817099,0.6315902882215205,0.7072805801832245,0.7410524649058794,0.6772584758144529,0.5967748123152306,0.5095925793271436,0.4470491547651103,0.4157654793156378,0.3914300746040986,0.3885358096178302,0.4075113187362387,0.4399775256648857,0.44490280008693883,0.4663977204148564,0.4867323193082811,0.5436609211731316,0.629450963411966,0.7165248872590899,0.793662008418873,0.8051975058689496,0.7464702559378282,0.6747482686433908,0.5801902277652182,0.48006163107786337,0.39524956031568514,0.3320920276529047,0.3103680922188974,0.3238770163812794,0.3833728763094535,0.48316136263585063,0.6015720135046774,0.7307223111277703,0.8471746022888587,0.9529450572198019,0.9770377471430685,0.8815469009875918,0.7535374996074125,0.6311204383323052,0.5059871238015701,0.38490179435638083,0.37761991119785243,0.4508177492209917,0.47604067618380563,0.41605262375276997,0.38850874420735604,0.4234783625243925,0.4431605158726577,0.45332176196051943,0.46148069823750326,0.46401519191675256,0.4696701682434723,0.5198917958898011,0.5966584190883535,0.6800145001004201,0.7611662001826112,0.8376530179708128,0.834582763044788,0.761736166765624,0.6672289007980723,0.5733410781371671,0.48167826239829914,0.4029862113062723,0.34531025898960976,0.336765441058557,0.3530817641842958,0.414764633973963,0.5190831372390412,0.6314241955355975,0.7475406628390515,0.8629334823021795,0.940726300664454,0.8830154386587199,0.7549678322497217,0.6230931918110518,0.4953883610800327,0.3998148339987395,0.40636154595911433,0.41401160114878577,0.3738096666541866,0.36834672070430763,0.4166873036908374,0.43019586107597707,0.4151151742968784,0.41457956685610275,0.41858473851076017,0.463996841023699,0.5359544678444603,0.6159802261170051,0.7041780618014908,0.7890550595083763,0.8326872344870551,0.7817638827415765,0.6919253360122646,0.5998458320589242,0.5093562529309676,0.4148052377879696,0.3328950823030752,0.29577065793743884,0.3068355758317578,0.3521033044063029,0.44445948142762415,0.5594032586631985,0.6781139092298196,0.7955726946749606,0.9116656303044754,1.0,0.9501810890606701,0.8317121080913377,0.7066307174711284,0.5758237477939265,0.45593308112134645,0.35968092384124395,0.3485377922311903,0.3023654861983629,0.2426351276770724,0.23509962481288893,0.28306491944681156,0.3093057157971417,0.3342370500344636,0.3917228093269962,0.439422745142346,0.4518211274397568,0.48212173865246033,0.5455342689273328,0.6221632411010911,0.714313028333259,0.799096634350895,0.8596063422749562,0.8353070127430744,0.7606360749212104,0.6731329278082727,0.5727904325061277,0.48144299218112563,0.4108468482638572,0.3764879364046587,0.3515091387127538,0.36324705353505093
0,1,2,3,4,5,6,7,8,9,10,11,12,13,14,15,16,17,18,19,20,21,22,23,24,25,26,27,28,29,30,31,32,33,34,35,36,37,38,39,40,41,42,43,44,45,46,47,48,49,50,51,52,53,54,55,56,57,58,59,60,61,62,63,64,65,66,67,68,69,70,71,72,73,74,75,76,77,78,79,80,81,82,83,84,85,86,87,88,89,90,91,92,93,94,95,96,97,98,99,100,101,102,103,104,105,106,107,108,109,110,111,112,113,114,115,116,117,118,119,120,121,122,123,124,125,126,127,128,129,130,131,132,133,134,135,136,137,138,139,140,141,142,143,144,145,146,147,148,149,150,151,152,153,154,155,156,157,158,159,160,161,162,163,164,165,166,167,168,169,170,171,172,173,174,175,176,177,178,179,180,181,182,183,184,185,186,187,188,189,190,191,192,193,194,195,196,197,198,199,200,201,202,203,204,205,206,207,208,209,210,211,212,213,214,215,216,217,218,219,220,221,222,223,224,225,226,227,228,229,230,231,232,233,234,235,236,237,238,239,240,241,242,243,244,245,246,247,248,249,250,251,252,253,254
0.7639868125946911,0.7277304128289535,0.6778078882630001,0.6407526895517672,0.6411001612446174,0.6509291900785366,0.6575173079522303,0.6700564479620845,0.6953807514409429,0.7134802979684389,0.6799500073018048,0.6288237934618879,0.5883911623337656,0.567931883416438,0.5723643814104205,0.5770715679360876,0.5727383044723999,0.5796573910256924,0.5849679045390528,0.5921845389709115,0.5967199942675139,0.5888476477562277,0.5898924508742716,0.5889674157172191,0.5813860108574378,0.5640042774552656,0.5595556461379554,0.5516500304005099,0.5566584717452219,0.5640265419491002,0.5534818538897475,0.5049504582471511,0.44314212329061164,0.37804743366907245,0.3216272695315745,0.24546332746348165,0.16457819110426763,0.08957660633250675,0.023619317409383722,0.023642950206348656,0.07817044577673493,0.145319054009037,0.20257931568105736,0.2759015205060482,0.3568160046595146,0.43785011114202277,0.5188487157775661,0.5959190294737886,0.6689452248895331,0.7495783953376178,0.8229086341053327,0.8121704342848663,0.7518972176097503,0.7048489041485517,0.6614662733104488,0.6114802451366366,0.5759801279853463,0.565316214472676,0.5736797921075549,0.5851145270405294,0.6016292225730613,0.625084092075098,0.6334706086409758,0.594925630712718,0.5463077492484423,0.5022531261825434,0.48619692003620685,0.4921701479832925,0.49131572378270816,0.4880888633844316,0.49554671287767027,0.5105393888358514,0.5181635051578006,0.5190768371740844,0.5147286848440813,0.5175832521868948,0.5207150734052177,0.5263141021167297,0.5284383644186987,0.5291584185569957,0.5357847101814837,0.5500711860453784,0.5748464315997883,0.592965024605494,0.5628175007760123,0.4971402965250671,0.4256966852613848,0.3454404387665442,0.2644443282664337,0.18767207717491763,0.11444828003404428,0.03890495565439389,0.0,0.04290530003329218,0.11962348108917209,0.20050044186136184,0.2753931590663701,0.35041824215576134,0.4313356941465365,0.5113858780646254,0.5761510416173357,0.6493444804366515,0.7223378434988552,0.7993074681502663,0.8678986390155652,0.8462557779394673,0.7967401387712121,0.756098070435999,0.7008629051515096,0.6566728300277025,0.6386829125697857,0.637763878255758,0.6538501724773211,0.6695591416396991,0.6949149659046241,0.7098406662464312,0.6773182977190371,0.631370338927661,0.5875072885781849,0.558693594723344,0.5546766308328759,0.5628849358266688,0.5697398383291445,0.5753932923452592,0.5690965691037242,0.5800272023589756,0.5890862665957917,0.5898121259419753,0.5996248550094267,0.5983662974590418,0.5977270749320458,0.6016194688083707,0.6102196051328055,0.6490521011505117,0.6546659967284811,0.6467882685255142,0.6381771206469731,0.6426986817914613,0.6433503150065567,0.6440858555834956,0.644768643185655,0.6297632288012651,0.6227214780788444,0.6181007888127965,0.6093214594836023,0.6083631769465105,0.6014926570803096,0.6032314798368339,0.6353184195270716,0.6842486148859197,0.7288244460603241,0.7491060112938515,0.7344357680651861,0.7052797021120387,0.6877420926893434,0.6740274303008276,0.6786691606122037,0.7031190255060147,0.7611012042170597,0.8119337457781084,0.8471547599162328,0.903032831616466,0.9543451174971627,1.0,0.9744258283530605,0.9039815844237302,0.8241218764171938,0.7520373211531202,0.6774308345548823,0.6147274406971479,0.5364291151096672,0.4573639451706264,0.4294197261233583,0.4907104891014902,0.560101141263663,0.616640798414716,0.6258671285125632,0.612263408590322,0.5883958008536165,0.5773035864791809,0.5695589451882914,0.5714652125257533,0.5728260500135405,0.5623716772063492,0.5608673727120785,0.5600897189004368,0.5647658738818484,0.558863373814465,0.5483977597350367,0.5312538173745347,0.5324686483700038,0.5352839449806857,0.5286990344267761,0.547923506901357,0.5992705516750836,0.6466319527997819,0.6806441482850913,0.6748876888073103,0.6490796297715824,0.6283051756724634,0.6183426978156756,0.6109612219419636,0.6163896641566087,0.6477811092882395,0.6987764638840859,0.7419681310199726,0.7885896664341967,0.8500651323548691,0.9255867002952276,0.9878900512640909,0.9895662538375296,0.9244432385002503,0.8513679006000219,0.7706955634282768,0.6919074682025808,0.6200384710874762,0.5399803342915066,0.45894791552293523,0.38005576583248124,0.3619668669391001,0.4253730508855591,0.49470725821516326,0.5588287562276442,0.5920285369114549,0.6105880545447651,0.6040371057862681,0.5931878429332453,0.5977420453405111,0.6038246005741819,0.622793710878998,0.634977861380579,0.6366612451075628,0.629419575033511,0.6366884745596084,0.6343572341502379,0.6247343233960101,0.624709839888633,0.6156339966703488,0.6162593520299349,0.6224044287619264,0.607266911480687,0.6196467475035732,0.661215046609803,0.7077723150701489,0.7489841084394397,0.7550248158694259,0.7288485093761929,0.7040113356600797,0.6922629052400762,0.685709414299287,0.6852840667472311,0.7255266619427241,0.7712877447243751,0.8109260269258765,0.8624313200108147
0,1,2,3,4,5,6,7,8,9,10,11,12,13,14,15,16,17,18,19,20,21,22,23,24,25,26,27,28,29,30,31,32,33,34,35,36,37,38,39,40,41,42,43,44,45,46,47,48,49,50,51,52,53,54,55,56,57,58,59,60,61,62,63,64,65,66,67,68,69,70,71,72,73,74,75,76,77,78,79,80,81,82,83,84,85,86,87,88,89,90,91,92,93,94,95,96,97,98,99,100,101,102,103,104,105,106,107,108,109,110,111,112,113,114,115,116,117,118,119,120,121,122,123,124,125,126,127,128,129,130,131,132,133,134,135,136,137,138,139,140,141,142,143,144,145,146,147,148,149,150,151,152,153,154,155,156,157,158,159,160,161,162,163,164,165,166,167,168,169,170,171,172,173,174,175,176,177,178,179,180,181,182,183,184,185,186,187,188,189,190,191,192,193,194,195,196,197,198,199,200,201,202,203,204,205,206,207,208,209,210,211,212,213,214,215,216,217,218,219,220,221,222,223,224,225,226,227,228,229,230,231,232,233,234,235,236,237,238,239,240,241,242,243,244,245,246,247,248,249,250,251,252,253,254
0.7639868125946911,0.7277304128289535,0.6778078882630001,0.6407526895517672,0.6411001612446174,0.6509291900785366,0.6575173079522303,0.6700564479620845,0.6953807514409429,0.7134802979684389,0.6799500073018048,0.6288237934618879,0.5883911623337656,0.567931883416438,0.5723643814104205,0.5770715679360876,0.5727383044723999,0.5796573910256924,0.5849679045390528,0.5921845389709115,0.5967199942675139,0.5888476477562277,0.5898924508742716,0.5889674157172191,0.5813860108574378,0.5640042774552656,0.5595556461379554,0.5516500304005099,0.5566584717452219,0.5640265419491002,0.5534818538897475,0.5049504582471511,0.44314212329061164,0.37804743366907245,0.3216272695315745,0.24546332746348165,0.16457819110426763,0.08957660633250675,0.023619317409383722,0.023642950206348656,0.07817044577673493,0.145319054009037,0.20257931568105736,0.2759015205060482,0.3568160046595146,0.43785011114202277,0.5188487157775661,0.5959190294737886,0.6689452248895331,0.7495783953376178,0.8229086341053327,0.8121704342848663,0.7518972176097503,0.7048489041485517,0.6614662733104488,0.6114802451366366,0.5759801279853463,0.565316214472676,0.5736797921075549,0.5851145270405294,0.6016292225730613,0.625084092075098,0.6334706086409758,0.594925630712718,0.5463077492484423,0.5022531261825434,0.48619692003620685,0.4921701479832925,0.49131572378270816,0.4880888633844316,0.49554671287767027,0.5105393888358514,0.5181635051578006,0.5190768371740844,0.5147286848440813,0.5175832521868948,0.5207150734052177,0.5263141021167297,0.5284383644186987,0.5291584185569957,0.5357847101814837,0.5500711860453784,0.5748464315997883,0.592965024605494,0.5628175007760123,0.4971402965250671,0.4256966852613848,0.3454404387665442,0.2644443282664337,0.18767207717491763,0.11444828003404428,0.03890495565439389,0.0,0.04290530003329218,0.11962348108917209,0.20050044186136184,0.2753931590663701,0.35041824215576134,0.4313356941465365,0.5113858780646254,0.5761510416173357,0.6493444804366515,0.7223378434988552,0.7993074681502663,0.8678986390155652,0.8462557779394673,0.7967401387712121,0.756098070435999,0.7008629051515096,0.6566728300277025,0.6386829125697857,0.637763878255758,0.6538501724773211,0.6695591416396991,0.6949149659046241,0.7098406662464312,0.6773182977190371,0.631370338927661,0.5875072885781849,0.558693594723344,0.5546766308328759,0.5628849358266688,0.5697398383291445,0.5753932923452592,0.5690965691037242,0.5800272023589756,0.5890862665957917,0.5898121259419753,0.5996248550094267,0.5983662974590418,0.5977270749320458,0.6016194688083707,0.6102196051328055,0.6490521011505117,0.6546659967284811,0.6467882685255142,0.6381771206469731,0.6426986817914613,0.6433503150065567,0.6440858555834956,0.644768643185655,0.6297632288012651,0.6227214780788444,0.6181007888127965,0.6093214594836023,0.6083631769465105,0.6014926570803096,0.6032314798368339,0.6353184195270716,0.6842486148859197,0.7288244460603241,0.7491060112938515,0.7344357680651861,0.7052797021120387,0.6877420926893434,0.6740274303008276,0.6786691606122037,0.7031190255060147,0.7611012042170597,0.8119337457781084,0.8471547599162328,0.903032831616466,0.9543451174971627,1.0,0.9744258283530605,0.9039815844237302,0.8241218764171938,0.7520373211531202,0.6774308345548823,0.6147274406971479,0.5364291151096672,0.4573639451706264,0.4294197261233583,0.4907104891014902,0.560101141263663,0.616640798414716,0.6258671285125632,0.612263408590322,0.5883958008536165,0.5773035864791809,0.5695589451882914,0.5714652125257533,0.5728260500135405,0.5623716772063492,0.5608673727120785,0.5600897189004368,0.5647658738818484,0.558863373814465,0.5483977597350367,0.5312538173745347,0.5324686483700038,0.5352839449806857,0.5286990344267761,0.547923506901357,0.5992705516750836,0.6466319527997819,0.6806441482850913,0.6748876888073103,0.6490796297715824,0.6283051756724634,0.6183426978156756,0.6109612219419636,0.6163896641566087,0.6477811092882395,0.6987764638840859,0.7419681310199726,0.7885896664341967,0.8500651323548691,0.9255867002952276,0.9878900512640909,0.9895662538375296,0.9244432385002503,0.8513679006000219,0.7706955634282768,0.6919074682025808,0.6200384710874762,0.5399803342915066,0.45894791552293523,0.38005576583248124,0.3619668669391001,0.4253730508855591,0.49470725821516326,0.5588287562276442,0.5920285369114549,0.6105880545447651,0.6040371057862681,0.5931878429332453,0.5977420453405111,0.6038246005741819,0.622793710878998,0.634977861380579,0.6366612451075628,0.629419575033511,0.6366884745596084,0.6343572341502379,0.6247343233960101,0.624709839888633,0.6156339966703488,0.6162593520299349,0.6224044287619264,0.607266911480687,0.6196467475035732,0.661215046609803,0.7077723150701489,0.7489841084394397,0.7550248158694259,0.7288485093761929,0.7040113356600797,0.6922629052400762,0.685709414299287,0.6852840667472311,0.7255266619427241,0.7712877447243751,0.8109260269258765,0.8624313200108147
0,1,2,3,4,5,6,7,8,9,10,11,12,13,14,15,16,17,18,19,20,21,22,23,24,25,26,27,28,29,30,31,32,33,34,35,36,37,38,39,40,41,42,43,44,45,46,47,48,49,50,51,52,53,54,55,56,57,58,59,60,61,62,63,64,65,66,67,68,69,70,71,72,73,74,75,76,77,78,79,80,81,82,83,84,85,86,87,88,89,90,91,92,93,94,95,96,97,98,99,100,101,102,103,104,105,106,107,108,109,110,111,112,113,114,115,116,117,118,119,120,121,122,123,124,125,126,127,128,129,130,131,132,133,134,135,136,137,138,139,140,141,142,143,144,145,146,147,148,149,150,151,152,153,154,155,156,157,158,159,160,161,162,163,164,165,166,167,168,169,170,171,172,173,174,175,176,177,178,179,180,181,182,183,184,185,186,187,188,189,190,191,192,193,194,195,196,197,198,199,200,201,202,203,204,205,206,207,208,209,210,211,212,213,214,215,216,217,218,219,220,221,222,223,224,225,226,227,228,229,230,231,232,233,234,235,236,237,238,239,240,241,242,243,244,245,246,247,248,249,250,251,252,253,254
0.4811591258987802,0.45706474055642987,0.4193633008927482,0.4014933802109566,0.4483936685065464,0.4738339675396812,0.43952741330173506,0.35555139498925326,0.26668930351257014,0.17289147588354759,0.08238349404660394,0.0,0.001246401715783163,0.08624063744238519,0.17527980932204024,0.270383123562032,0.36627007494611186,0.46215838122555275,0.558046206266251,0.6520908938015906,0.6878408820772359,0.6161907164501221,0.5419420876632299,0.48332230016323585,0.45144111948652665,0.42160627814590046,0.39527577633766287,0.3923657922892143,0.4313302853003147,0.47525940281628265,0.4790542673489695,0.4643453846104799,0.469709098113525,0.43739796321662694,0.4229909293654617,0.46311810639583206,0.48965610996536557,0.44653782926664265,0.3603930544778564,0.2681103917814418,0.17909921088424663,0.08582234105135056,0.02399919391383576,0.06574000870770358,0.15761209715918456,0.2534735641894965,0.34932288203482664,0.4405107681525908,0.5227651558081137,0.6110018414433478,0.7040025108004071,0.7750244558015833,0.7250308604096933,0.638488441391047,0.5652521320184247,0.5048864227449286,0.47220214447111597,0.43834320374142743,0.40929303141344575,0.4102518958043273,0.4528145711978848,0.4916194441712165,0.5015873832262052,0.4813004162981924,0.4701505996867077,0.4315087130302422,0.43603014557627806,0.4759013429985075,0.4628320179858967,0.3888748250289702,0.3006851025387951,0.20979321471809365,0.12248249028656888,0.04568161557203099,0.005534689145008986,0.06594026997139313,0.15999485059289476,0.2558782866040279,0.35176659288346923,0.44765436791394,0.5430007851180432,0.631575662731225,0.6792740700806574,0.6142281654089261,0.5406964824496874,0.4836393281232423,0.4499556490040808,0.4244648339162016,0.40748183550666317,0.41343476597744355,0.45821936285961007,0.497846674755815,0.5057171418172204,0.5013198527172762,0.4828285185551495,0.44587926041827974,0.44556631928534784,0.4932884807426092,0.49413301279065225,0.42984894372001614,0.3398480809117397,0.2509744733672852,0.15804334800522724,0.08105526408026442,0.05253123106010915,0.12422137796004673,0.21973230281060152,0.3156204251494956,0.4111262607106021,0.500930804922787,0.5937365719580519,0.6851475935189735,0.6967816501987907,0.6190468885680498,0.5441488912028238,0.4987676286857312,0.48040991005781897,0.4513902462407793,0.4334603019532286,0.4539030785226761,0.49336942571766507,0.5096411856527194,0.501467175931706,0.4889232484626562,0.4596665783192715,0.42071965450965454,0.44633164551655713,0.48520365899575335,0.4730226831765474,0.40037634403495326,0.308511814340368,0.2196353306139045,0.1259640768450001,0.041427246548803476,0.024167838283187137,0.10558306925722216,0.19441928989175605,0.2891345433535506,0.38497938340434534,0.4701585510387314,0.4552742413757829,0.3754015362653438,0.39732726481300085,0.48214497794755573,0.5300505050578634,0.5188126683817642,0.48163403913557623,0.48726766465041527,0.5186861098795781,0.5271376042228686,0.5406827243703887,0.5274588493130288,0.4941988892132565,0.4721215607667164,0.4874281255839421,0.5161500133692345,0.5373730605009484,0.598783738176462,0.6819691691009089,0.7691076442190952,0.8559453573334541,0.9091555364190185,0.8505957636012205,0.7611779445253786,0.6688118032646062,0.5751086864896291,0.4971883543372033,0.505804490204514,0.5367124871847149,0.5303583194882895,0.4901054465028969,0.4970958921808326,0.5293589734653912,0.5440376182193929,0.5443662310573705,0.5183564684096877,0.47142869718911884,0.44866395738911713,0.4658910059641779,0.49331242682051357,0.5307881398958971,0.5950175403993989,0.6779625770836624,0.7666319657808935,0.8541039915732527,0.9080371607575015,0.8539357792007309,0.7628802230259359,0.6699562257454645,0.5803171963262364,0.4848974056312405,0.40105761565973963,0.4211869146363889,0.49733894828580616,0.5245859673540676,0.5124298397542211,0.46911310377572835,0.4805801118447399,0.5271198046343242,0.5312318042091546,0.5380374511333981,0.5309716615000992,0.5006428476864015,0.4587418837743644,0.4543873746974385,0.479699074972046,0.5125139251864692,0.5545935756408138,0.6182382705540117,0.7023325832396432,0.7927392857687059,0.8825612483952201,0.9674830003521593,1.0,0.9313211015963523,0.837473445903179,0.7421552406586998,0.6527899342071981,0.5593789457673988,0.4649720423254917,0.4240638195689821,0.4899946416464498,0.5306324657336026,0.5133591510573188,0.47426947896460403,0.4795989562869307,0.5109716000400841,0.5182103108570288,0.5289261164799948,0.5111895767249832,0.4655094737849139,0.42851635763250173,0.44145742213592487,0.4756752305211158,0.49898666905420574,0.5411562671319103,0.6105000986100924,0.6980794877318546,0.7867123459844478,0.8767205979264723,0.961604412617429,0.9752666094647089,0.8934530586826561,0.8042713951029015,0.7107283897876999,0.614863161408181,0.5212473417614136,0.4755593675605927,0.5081722111204023,0.5234281727234926,0.49684412709167103,0.4508569085546643,0.4748753820420879,0.5074866370876285,0.5250407757791562
0,1,2,3,4,5,6,7,8,9,10,11,12,13,14,15,16,17,18,19,20,21,22,23,24,25,26,27,28,29,30,31,32,33,34,35,36,37,38,39,40,41,42,43,44,45,46,47,48,49,50,51,52,53,54,55,56,57,58,59,60,61,62,63,64,65,66,67,68,69,70,71,72,73,74,75,76,77,78,79,80,81,82,83,84,85,86,87,88,89,90,91,92,93,94,95,96,97,98,99,100,101,102,103,104,105,106,107,108,109,110,111,112,113,114,115,116,117,118,119,120,121,122,123,124,125,126,127,128,129,130,131,132,133,134,135,136,137,138,139,140,141,142,143,144,145,146,147,148,149,150,151,152,153,154,155,156,157,158,159,160,161,162,163,164,165,166,167,168,169,170,171,172,173,174,175,176,177,178,179,180,181,182,183,184,185,186,187,188,189,190,191,192,193,194,195,196,197,198,199,200,201,202,203,204,205,206,207,208,209,210,211,212,213,214,215,216,217,218,219,220,221,222,223,224,225,226,227,228,229,230,231,232,233,234,235,236,237,238,239,240,241,242,243,244,245,246,247,248,249,250,251,252,253,254
0.4811591258987802,0.45706474055642987,0.4193633008927482,0.4014933802109566,0.4483936685065464,0.4738339675396812,0.43952741330173506,0.35555139498925326,0.26668930351257014,0.17289147588354759,0.08238349404660394,0.0,0.001246401715783163,0.08624063744238519,0.17527980932204024,0.270383123562032,0.36627007494611186,0.46215838122555275,0.558046206266251,0.6520908938015906,0.6878408820772359,0.6161907164501221,0.5419420876632299,0.48332230016323585,0.45144111948652665,0.42160627814590046,0.39527577633766287,0.3923657922892143,0.4313302853003147,0.47525940281628265,0.4790542673489695,0.4643453846104799,0.469709098113525,0.43739796321662694,0.4229909293654617,0.46311810639583206,0.48965610996536557,0.44653782926664265,0.3603930544778564,0.2681103917814418,0.17909921088424663,0.08582234105135056,0.02399919391383576,0.06574000870770358,0.15761209715918456,0.2534735641894965,0.34932288203482664,0.4405107681525908,0.5227651558081137,0.6110018414433478,0.7040025108004071,0.7750244558015833,0.7250308604096933,0.638488441391047,0.5652521320184247,0.5048864227449286,0.47220214447111597,0.43834320374142743,0.40929303141344575,0.4102518958043273,0.4528145711978848,0.4916194441712165,0.5015873832262052,0.4813004162981924,0.4701505996867077,0.4315087130302422,0.43603014557627806,0.4759013429985075,0.4628320179858967,0.3888748250289702,0.3006851025387951,0.20979321471809365,0.12248249028656888,0.04568161557203099,0.005534689145008986,0.06594026997139313,0.15999485059289476,0.2558782866040279,0.35176659288346923,0.44765436791394,0.5430007851180432,0.631575662731225,0.6792740700806574,0.6142281654089261,0.5406964824496874,0.4836393281232423,0.4499556490040808,0.4244648339162016,0.40748183550666317,0.41343476597744355,0.45821936285961007,0.497846674755815,0.5057171418172204,0.5013198527172762,0.4828285185551495,0.44587926041827974,0.44556631928534784,0.4932884807426092,0.49413301279065225,0.42984894372001614,0.3398480809117397,0.2509744733672852,0.15804334800522724,0.08105526408026442,0.05253123106010915,0.12422137796004673,0.21973230281060152,0.3156204251494956,0.4111262607106021,0.500930804922787,0.5937365719580519,0.6851475935189735,0.6967816501987907,0.6190468885680498,0.5441488912028238,0.4987676286857312,0.48040991005781897,0.4513902462407793,0.4334603019532286,0.4539030785226761,0.49336942571766507,0.5096411856527194,0.501467175931706,0.4889232484626562,0.4596665783192715,0.42071965450965454,0.44633164551655713,0.48520365899575335,0.4730226831765474,0.40037634403495326,0.308511814340368,0.2196353306139045,0.1259640768450001,0.041427246548803476,0.024167838283187137,0.10558306925722216,0.19441928989175605,0.2891345433535506,0.38497938340434534,0.4701585510387314,0.4552742413757829,0.3754015362653438,0.39732726481300085,0.48214497794755573,0.5300505050578634,0.5188126683817642,0.48163403913557623,0.48726766465041527,0.5186861098795781,0.5271376042228686,0.5406827243703887,0.5274588493130288,0.4941988892132565,0.4721215607667164,0.4874281255839421,0.5161500133692345,0.5373730605009484,0.598783738176462,0.6819691691009089,0.7691076442190952,0.8559453573334541,0.9091555364190185,0.8505957636012205,0.7611779445253786,0.6688118032646062,0.5751086864896291,0.4971883543372033,0.505804490204514,0.5367124871847149,0.5303583194882895,0.4901054465028969,0.4970958921808326,0.5293589734653912,0.5440376182193929,0.5443662310573705,0.5183564684096877,0.47142869718911884,0.44866395738911713,0.4658910059641779,0.49331242682051357,0.5307881398958971,0.5950175403993989,0.6779625770836624,0.7666319657808935,0.8541039915732527,0.9080371607575015,0.8539357792007309,0.7628802230259359,0.6699562257454645,0.5803171963262364,0.4848974056312405,0.40105761565973963,0.4211869146363889,0.49733894828580616,0.5245859673540676,0.5124298397542211,0.46911310377572835,0.4805801118447399,0.5271198046343242,0.5312318042091546,0.5380374511333981,0.5309716615000992,0.5006428476864015,0.4587418837743644,0.4543873746974385,0.479699074972046,0.5125139251864692,0.5545935756408138,0.6182382705540117,0.7023325832396432,0.7927392857687059,0.8825612483952201,0.9674830003521593,1.0,0.9313211015963523,0.837473445903179,0.7421552406586998,0.6527899342071981,0.5593789457673988,0.4649720423254917,0.4240638195689821,0.4899946416464498,0.5306324657336026,0.5133591510573188,0.47426947896460403,0.4795989562869307,0.5109716000400841,0.5182103108570288,0.5289261164799948,0.5111895767249832,0.4655094737849139,0.42851635763250173,0.44145742213592487,0.4756752305211158,0.49898666905420574,0.5411562671319103,0.6105000986100924,0.6980794877318546,0.7867123459844478,0.8767205979264723,0.961604412617429,0.9752666094647089,0.8934530586826561,0.8042713951029015,0.7107283897876999,0.614863161408181,0.5212473417614136,0.4755593675605927,0.5081722111204023,0.5234281727234926,0.49684412709167103,0.4508569085546643,0.4748753820420879,0.5074866370876285,0.5250407757791562
0,1,2,3,4,5,6,7,8,9,10,11,12,13,14,15,16,17,18,19,20,21,22,23,24,25,26,27,28,29,30,31,32,33,34,35,36,37,38,39,40,41,42,43,44,45,46,47,48,49,50,51,52,53,54,55,56,57,58,59,60,61,62,63,64,65,66,67,68,69,70,71,72,73,74,75,76,77,78,79,80,81,82,83,84,85,86,87,88,89,90,91,92,93,94,95,96,97,98,99,100,101,102,103,104,105,106,107,108,109,110,111,112,113,114,115,116,117,118,119,120,121,122,123,124,125,126,127,128,129,130,131,132,133,134,135,136,137,138,139,140,141,142,143,144,145,146,147,148,149,150,151,152,153,154,155,156,157,158,159,160,161,162,163,164,165,166,167,168,169,170,171,172,173,174,175,176,177,178,179,180,181,182,183,184,185,186,187,188,189,190,191,192,193,194,195,196,197,198,199,200,201,202,203,204,205,206,207,208,209,210,211,212,213,214,215,216,217,218,219,220,221,222,223,224,225,226,227,228,229,230,231,232,233,234,235,236,237,238,239,240,241,242,243,244,245,246,247,248,249,250,251,252,253,254
0.7997901330252841,0.8102942699086952,0.820772895004831,0.8261815303244373,0.8237330414260113,0.8393129942258872,0.8686654992498728,0.8929547009395171,0.9148731686225169,0.8641616432754269,0.7916562305399697,0.7250683338682287,0.6530606604211397,0.5796945936013689,0.5119580809986275,0.4416702568214397,0.3681283742991024,0.2984300309615444,0.23016884731385012,0.15769127595233257,0.09543257776739489,0.0856603068414088,0.14579215789959832,0.21907746522861782,0.29128151636252264,0.3578245603305903,0.4304399226515485,0.5040247816466781,0.5737665719661547,0.6403512445215287,0.6963489454472127,0.7468517207479848,0.7984858969080033,0.8199435775483586,0.8162832979346892,0.8008902722890578,0.7836105774292739,0.7738272609315549,0.7921620517940926,0.8179308458288987,0.8227855173196499,0.8143664162275146,0.7940280880012696,0.77858636195438,0.7767748594009836,0.7737915196965179,0.7777912624609686,0.7940031793391991,0.8224646778050466,0.8452879068616552,0.825487943456749,0.8259564212461565,0.8310742130251454,0.7670642496250581,0.6997162648941748,0.6289940536158125,0.5553886508725578,0.484167360602195,0.4180102488626416,0.35748178703790967,0.28948968309030065,0.2180935204557346,0.15123381179649098,0.07958197870529504,0.03800049594531363,0.078179783552629,0.14738063343172125,0.22087119488427498,0.2901476169257329,0.3588092284084692,0.43231684178175867,0.5056554461769629,0.5732229053010325,0.6429299289973891,0.6914057282380184,0.7019634227741589,0.6956755841194882,0.6888953416424968,0.7007303903326045,0.7242394521777493,0.7650865335597001,0.7960627558693907,0.7879860992651786,0.7814563554404821,0.7837055964696051,0.7842096126670735,0.786204228230474,0.7870713166719101,0.7969378643488847,0.7995944186994479,0.7980271896172944,0.801413570889268,0.802453154753964,0.8049487954947661,0.8068223166817141,0.809849219491493,0.8047984991214496,0.7901276941058248,0.7879206935728851,0.8033323988569374,0.8303125063311914,0.8566054161922676,0.8350721830642209,0.7637226875592482,0.6900777712083135,0.616431804378961,0.5427882821233234,0.4703154929175797,0.40379390366266943,0.33142635548503274,0.2579827663732852,0.18984461123468765,0.12002545995898428,0.048540154465997354,0.0,0.025969734337110695,0.09294275733226232,0.16647683701023575,0.239443353318173,0.3061974899844666,0.3778438770382351,0.4514738756596157,0.5235127684917236,0.5900811654235498,0.6608011540111496,0.7172799146009092,0.7435520427179971,0.7518502264345359,0.7460920416791281,0.7445742971891429,0.7579352179898622,0.7757841686593441,0.7897913168955595,0.7907541406003566,0.7874963682329197,0.7861062120644755,0.7905038138359646,0.8042337211132304,0.8333105498707349,0.8437001114266822,0.8666977913484173,0.8749563245538801,0.8476482853577332,0.8253053896822742,0.8177802356085342,0.8188499352574077,0.8233102600034927,0.8225818729992989,0.8080176237147119,0.7888688165092037,0.7767609372756838,0.7783499080703944,0.7806350553531831,0.774386219997053,0.7578238629970422,0.7171346029711179,0.6542051988107174,0.5856590892900717,0.5169180523853645,0.4435198902478321,0.38813931401751,0.427547664123336,0.49820890711495425,0.5652611166765733,0.6384126558330931,0.7114326933814927,0.7782714417285028,0.8493636224654395,0.9162283880402693,0.9653399612912639,0.9381707544694942,0.8849933045443068,0.851552387152791,0.8287677237856139,0.8215517827210395,0.8338662648310953,0.8395136231371105,0.8370572849837685,0.8330664070356912,0.8328786813036146,0.8313955326899516,0.8301108103752894,0.8282122005713468,0.8282142761557298,0.8228571638894793,0.819359825994104,0.8167043742998625,0.8163726504974211,0.8133745872913429,0.8133959061470102,0.8266048904136143,0.8257580261865067,0.7941852815328254,0.7552793925020076,0.7280166879351517,0.7188612902271849,0.7299989690235189,0.7332781351281425,0.7303069511309825,0.7009449591264909,0.6336436221940185,0.5600818635048199,0.4928252589382529,0.5038625796548564,0.568168363519471,0.63973572005412,0.7122290204844222,0.7787540972858344,0.8502619672991898,0.9135339559317748,0.9366473752491238,0.8935383560036474,0.8661073560215109,0.8825924964532328,0.8664308984802465,0.8321846349450803,0.8129837291368687,0.8049547451389405,0.807181870981523,0.8179181350309446,0.8392332165022394,0.84793115211402,0.8571054755814225,0.8479431248457028,0.8221669263002518,0.8071965549155764,0.8217965948341142,0.8371627781351749,0.8529853543306578,0.8512624966766376,0.8345773927917464,0.791216949778287,0.7288740082884801,0.6562590793620515,0.5826147787940532,0.5089861194285399,0.44313868568715464,0.4592256726864703,0.5308660412981505,0.6001843528220041,0.6687983966917979,0.7422684746776136,0.8125684829902073,0.8802392684974145,0.949615527990572,0.9999999999999998,0.9862665042284562,0.935171860929163,0.9053434245966363,0.8782782120417354,0.8596281046169536,0.8597145285692083,0.8544559034681747,0.8445866908113591,0.8322213847334479
0,1,2,3,4,5,6,7,8,9,10,11,12,13,14,15,16,17,18,19,20,21,22,23,24,25,26,27,28,29,30,31,32,33,34,35,36,37,38,39,40,41,42,43,44,45,46,47,48,49,50,51,52,53,54,55,56,57,58,59,60,61,62,63,64,65,66,67,68,69,70,71,72,73,74,75,76,77,78,79,80,81,82,83,84,85,86,87,88,89,90,91,92,93,94,95,96,97,98,99,100,101,102,103,104,105,106,107,108,109,110,111,112,113,114,115,116,117,118,119,120,121,122,123,124,125,126,127,128,129,130,131,132,133,134,135,136,137,138,139,140,141,142,143,144,145,146,147,148,149,150,151,152,153,154,155,156,157,158,159,160,161,162,163,164,165,166,167,168,169,170,171,172,173,174,175,176,177,178,179,180,181,182,183,184,185,186,187,188,189,190,191,192,193,194,195,196,197,198,199,200,201,202,203,204,205,206,207,208,209,210,211,212,213,214,215,216,217,218,219,220,221,222,223,224,225,226,227,228,229,230,231,232,233,234,235,236,237,238,239,240,241,242,243,244,245,246,247,248,249,250,251,252,253,254
0.7639868125946911,0.7277304128289535,0.6778078882630001,0.6407526895517672,0.6411001612446174,0.6509291900785366,0.6575173079522303,0.6700564479620845,0.6953807514409429,0.7134802979684389,0.6799500073018048,0.6288237934618879,0.5883911623337656,0.567931883416438,0.5723643814104205,0.5770715679360876,0.5727383044723999,0.5796573910256924,0.5849679045390528,0.5921845389709115,0.5967199942675139,0.5888476477562277,0.5898924508742716,0.5889674157172191,0.5813860108574378,0.5640042774552656,0.5595556461379554,0.5516500304005099,0.5566584717452219,0.5640265419491002,0.5534818538897475,0.5049504582471511,0.44314212329061164,0.37804743366907245,0.3216272695315745,0.24546332746348165,0.16457819110426763,0.08957660633250675,0.023619317409383722,0.023642950206348656,0.07817044577673493,0.145319054009037,0.20257931568105736,0.2759015205060482,0.3568160046595146,0.43785011114202277,0.5188487157775661,0.5959190294737886,0.6689452248895331,0.7495783953376178,0.8229086341053327,0.8121704342848663,0.7518972176097503,0.7048489041485517,0.6614662733104488,0.6114802451366366,0.5759801279853463,0.565316214472676,0.5736797921075549,0.5851145270405294,0.6016292225730613,0.625084092075098,0.6334706086409758,0.594925630712718,0.5463077492484423,0.5022531261825434,0.48619692003620685,0.4921701479832925,0.49131572378270816,0.4880888633844316,0.49554671287767027,0.5105393888358514,0.5181635051578006,0.5190768371740844,0.5147286848440813,0.5175832521868948,0.5207150734052177,0.5263141021167297,0.5284383644186987,0.5291584185569957,0.5357847101814837,0.5500711860453784,0.5748464315997883,0.592965024605494,0.5628175007760123,0.4971402965250671,0.4256966852613848,0.3454404387665442,0.2644443282664337,0.18767207717491763,0.11444828003404428,0.03890495565439389,0.0,0.04290530003329218,0.11962348108917209,0.20050044186136184,0.2753931590663701,0.35041824215576134,0.4313356941465365,0.5113858780646254,0.5761510416173357,0.6493444804366515,0.7223378434988552,0.7993074681502663,0.8678986390155652,0.8462557779394673,0.7967401387712121,0.756098070435999,0.7008629051515096,0.6566728300277025,0.6386829125697857,0.637763878255758,0.6538501724773211,0.6695591416396991,0.6949149659046241,0.7098406662464312,0.6773182977190371,0.631370338927661,0.5875072885781849,0.558693594723344,0.5546766308328759,0.5628849358266688,0.5697398383291445,0.5753932923452592,0.5690965691037242,0.5800272023589756,0.5890862665957917,0.5898121259419753,0.5996248550094267,0.5983662974590418,0.5977270749320458,0.6016194688083707,0.6102196051328055,0.6490521011505117,0.6546659967284811,0.6467882685255142,0.6381771206469731,0.6426986817914613,0.6433503150065567,0.6440858555834956,0.644768643185655,0.6297632288012651,0.6227214780788444,0.6181007888127965,0.6093214594836023,0.6083631769465105,0.6014926570803096,0.6032314798368339,0.6353184195270716,0.6842486148859197,0.7288244460603241,0.7491060112938515,0.7344357680651861,0.7052797021120387,0.6877420926893434,0.6740274303008276,0.6786691606122037,0.7031190255060147,0.7611012042170597,0.8119337457781084,0.8471547599162328,0.903032831616466,0.9543451174971627,1.0,0.9744258283530605,0.9039815844237302,0.8241218764171938,0.7520373211531202,0.6774308345548823,0.6147274406971479,0.5364291151096672,0.4573639451706264,0.4294197261233583,0.4907104891014902,0.560101141263663,0.616640798414716,0.6258671285125632,0.612263408590322,0.5883958008536165,0.5773035864791809,0.5695589451882914,0.5714652125257533,0.5728260500135405,0.5623716772063492,0.5608673727120785,0.5600897189004368,0.5647658738818484,0.558863373814465,0.5483977597350367,0.5312538173745347,0.5324686483700038,0.5352839449806857,0.5286990344267761,0.547923506901357,0.5992705516750836,0.6466319527997819,0.6806441482850913,0.6748876888073103,0.6490796297715824,0.6283051756724634,0.6183426978156756,0.6109612219419636,0.6163896641566087,0.6477811092882395,0.6987764638840859,0.7419681310199726,0.7885896664341967,0.8500651323548691,0.9255867002952276,0.9878900512640909,0.9895662538375296,0.9244432385002503,0.8513679006000219,0.7706955634282768,0.6919074682025808,0.6200384710874762,0.5399803342915066,0.45894791552293523,0.38005576583248124,0.3619668669391001,0.4253730508855591,0.49470725821516326,0.5588287562276442,0.5920285369114549,0.6105880545447651,0.6040371057862681,0.5931878429332453,0.5977420453405111,0.6038246005741819,0.622793710878998,0.634977861380579,0.6366612451075628,0.629419575033511,0.6366884745596084,0.6343572341502379,0.6247343233960101,0.624709839888633,0.6156339966703488,0.6162593520299349,0.6224044287619264,0.607266911480687,0.6196467475035732,0.661215046609803,0.7077723150701489,0.7489841084394397,0.7550248158694259,0.7288485093761929,0.7040113356600797,0.6922629052400762,0.685709414299287,0.6852840667472311,0.7255266619427241,0.7712877447243751,0.8109260269258765,0.8624313200108147
0,1,2,3,4,5,6,7,8,9,10,11,12,13,14,15,16,17,18,19,20,21,22,23,24,25,26,27,28,29,30,31,32,33,34,35,36,37,38,39,40,41,42,43,44,45,46,47,48,49,50,51,52,53,54,55,56,57,58,59,60,61,62,63,64,65,66,67,68,69,70,71,72,73,74,75,76,77,78,79,80,81,82,83,84,85,86,87,88,89,90,91,92,93,94,95,96,97,98,99,100,101,102,103,104,105,106,107,108,109,110,111,112,113,114,115,116,117,118,119,120,121,122,123,124,125,126,127,128,129,130,131,132,133,134,135,136,137,138,139,140,141,142,143,144,145,146,147,148,149,150,151,152,153,154,155,156,157,158,159,160,161,162,163,164,165,166,167,168,169,170,171,172,173,174,175,176,177,178,179,180,181,182,183,184,185,186,187,188,189,190,191,192,193,194,195,196,197,198,199,200,201,202,203,204,205,206,207,208,209,210,211,212,213,214,215,216,217,218,219,220,221,222,223,224,225,226,227,228,229,230,231,232,233,234,235,236,237,238,239,240,241,242,243,244,245,246,247,248,249,250,251,252,253,254
0.7639868125946911,0.7277304128289535,0.6778078882630001,0.6407526895517672,0.6411001612446174,0.6509291900785366,0.6575173079522303,0.6700564479620845,0.6953807514409429,0.7134802979684389,0.6799500073018048,0.6288237934618879,0.5883911623337656,0.567931883416438,0.5723643814104205,0.5770715679360876,0.5727383044723999,0.5796573910256924,0.5849679045390528,0.5921845389709115,0.5967199942675139,0.5888476477562277,0.5898924508742716,0.5889674157172191,0.5813860108574378,0.5640042774552656,0.5595556461379554,0.5516500304005099,0.5566584717452219,0.5640265419491002,0.5534818538897475,0.5049504582471511,0.44314212329061164,0.37804743366907245,0.3216272695315745,0.24546332746348165,0.16457819110426763,0.08957660633250675,0.023619317409383722,0.023642950206348656,0.07817044577673493,0.145319054009037,0.20257931568105736,0.2759015205060482,0.3568160046595146,0.43785011114202277,0.5188487157775661,0.5959190294737886,0.6689452248895331,0.7495783953376178,0.8229086341053327,0.8121704342848663,0.7518972176097503,0.7048489041485517,0.6614662733104488,0.6114802451366366,0.5759801279853463,0.565316214472676,0.5736797921075549,0.5851145270405294,0.6016292225730613,0.625084092075098,0.6334706086409758,0.594925630712718,0.5463077492484423,0.5022531261825434,0.48619692003620685,0.4921701479832925,0.49131572378270816,0.4880888633844316,0.49554671287767027,0.5105393888358514,0.5181635051578006,0.5190768371740844,0.5147286848440813,0.5175832521868948,0.5207150734052177,0.5263141021167297,0.5284383644186987,0.5291584185569957,0.5357847101814837,0.5500711860453784,0.5748464315997883,0.592965024605494,0.5628175007760123,0.4971402965250671,0.4256966852613848,0.3454404387665442,0.2644443282664337,0.18767207717491763,0.11444828003404428,0.03890495565439389,0.0,0.04290530003329218,0.11962348108917209,0.20050044186136184,0.2753931590663701,0.35041824215576134,0.4313356941465365,0.5113858780646254,0.5761510416173357,0.6493444804366515,0.7223378434988552,0.7993074681502663,0.8678986390155652,0.8462557779394673,0.7967401387712121,0.756098070435999,0.7008629051515096,0.6566728300277025,0.6386829125697857,0.637763878255758,0.6538501724773211,0.6695591416396991,0.6949149659046241,0.7098406662464312,0.6773182977190371,0.631370338927661,0.5875072885781849,0.558693594723344,0.5546766308328759,0.5628849358266688,0.5697398383291445,0.5753932923452592,0.5690965691037242,0.5800272023589756,0.5890862665957917,0.5898121259419753,0.5996248550094267,0.5983662974590418,0.5977270749320458,0.6016194688083707,0.6102196051328055,0.6490521011505117,0.6546659967284811,0.6467882685255142,0.6381771206469731,0.6426986817914613,0.6433503150065567,0.6440858555834956,0.644768643185655,0.6297632288012651,0.6227214780788444,0.6181007888127965,0.6093214594836023,0.6083631769465105,0.6014926570803096,0.6032314798368339,0.6353184195270716,0.6842486148859197,0.7288244460603241,0.7491060112938515,0.7344357680651861,0.7052797021120387,0.6877420926893434,0.6740274303008276,0.6786691606122037,0.7031190255060147,0.7611012042170597,0.8119337457781084,0.8471547599162328,0.903032831616466,0.9543451174971627,1.0,0.9744258283530605,0.9039815844237302,0.8241218764171938,0.7520373211531202,0.6774308345548823,0.6147274406971479,0.5364291151096672,0.4573639451706264,0.4294197261233583,0.4907104891014902,0.560101141263663,0.616640798414716,0.6258671285125632,0.612263408590322,0.5883958008536165,0.5773035864791809,0.5695589451882914,0.5714652125257533,0.5728260500135405,0.5623716772063492,0.5608673727120785,0.5600897189004368,0.5647658738818484,0.558863373814465,0.5483977597350367,0.5312538173745347,0.5324686483700038,0.5352839449806857,0.5286990344267761,0.547923506901357,0.5992705516750836,0.6466319527997819,0.6806441482850913,0.6748876888073103,0.6490796297715824,0.6283051756724634,0.6183426978156756,0.6109612219419636,0.6163896641566087,0.6477811092882395,0.6987764638840859,0.7419681310199726,0.7885896664341967,0.8500651323548691,0.9255867002952276,0.9878900512640909,0.9895662538375296,0.9244432385002503,0.8513679006000219,0.7706955634282768,0.6919074682025808,0.6200384710874762,0.5399803342915066,0.45894791552293523,0.38005576583248124,0.3619668669391001,0.4253730508855591,0.49470725821516326,0.5588287562276442,0.5920285369114549,0.6105880545447651,0.6040371057862681,0.5931878429332453,0.5977420453405111,0.6038246005741819,0.622793710878998,0.634977861380579,0.6366612451075628,0.629419575033511,0.6366884745596084,0.6343572341502379,0.6247343233960101,0.624709839888633,0.6156339966703488,0.6162593520299349,0.6224044287619264,0.607266911480687,0.6196467475035732,0.661215046609803,0.7077723150701489,0.7489841084394397,0.7550248158694259,0.7288485093761929,0.7040113356600797,0.6922629052400762,0.685709414299287,0.6852840667472311,0.7255266619427241,0.7712877447243751,0.8109260269258765,0.8624313200108147
0,1,2,3,4,5,6,7,8,9,10,11,12,13,14,15,16,17,18,19,20,21,22,23,24,25,26,27,28,29,30,31,32,33,34,35,36,37,38,39,40,41,42,43,44,45,46,47,48,49,50,51,52,53,54,55,56,57,58,59,60,61,62,63,64,65,66,67,68,69,70,71,72,73,74,75,76,77,78,79,80,81,82,83,84,85,86,87,88,89,90,91,92,93,94,95,96,97,98,99,100,101,102,103,104,105,106,107,108,109,110,111,112,113,114,115,116,117,118,119,120,121,122,123,124,125,126,127,128,129,130,131,132,133,134,135,136,137,138,139,140,141,142,143,144,145,146,147,148,149,150,151,152,153,154,155,156,157,158,159,160,161,162,163,164,165,166,167,168,169,170,171,172,173,174,175,176,177,178,179,180,181,182,183,184,185,186,187,188,189,190,191,192,193,194,195,196,197,198,199,200,201,202,203,204,205,206,207,208,209,210,211,212,213,214,215,216,217,218,219,220,221,222,223,224,225,226,227,228,229,230,231,232,233,234,235,236,237,238,239,240,241,242,243,244,245,246,247,248,249,250,251,252,253,254
0.7639868125946911,0.7277304128289535,0.6778078882630001,0.6407526895517672,0.6411001612446174,0.6509291900785366,0.6575173079522303,0.6700564479620845,0.6953807514409429,0.7134802979684389,0.6799500073018048,0.6288237934618879,0.5883911623337656,0.567931883416438,0.5723643814104205,0.5770715679360876,0.5727383044723999,0.5796573910256924,0.5849679045390528,0.5921845389709115,0.5967199942675139,0.5888476477562277,0.5898924508742716,0.5889674157172191,0.5813860108574378,0.5640042774552656,0.5595556461379554,0.5516500304005099,0.5566584717452219,0.5640265419491002,0.5534818538897475,0.5049504582471511,0.44314212329061164,0.37804743366907245,0.3216272695315745,0.24546332746348165,0.16457819110426763,0.08957660633250675,0.023619317409383722,0.023642950206348656,0.07817044577673493,0.145319054009037,0.20257931568105736,0.2759015205060482,0.3568160046595146,0.43785011114202277,0.5188487157775661,0.5959190294737886,0.6689452248895331,0.7495783953376178,0.8229086341053327,0.8121704342848663,0.7518972176097503,0.7048489041485517,0.6614662733104488,0.6114802451366366,0.5759801279853463,0.565316214472676,0.5736797921075549,0.5851145270405294,0.6016292225730613,0.625084092075098,0.6334706086409758,0.594925630712718,0.5463077492484423,0.5022531261825434,0.48619692003620685,0.4921701479832925,0.49131572378270816,0.4880888633844316,0.49554671287767027,0.5105393888358514,0.5181635051578006,0.5190768371740844,0.5147286848440813,0.5175832521868948,0.5207150734052177,0.5263141021167297,0.5284383644186987,0.5291584185569957,0.5357847101814837,0.5500711860453784,0.5748464315997883,0.592965024605494,0.5628175007760123,0.4971402965250671,0.4256966852613848,0.3454404387665442,0.2644443282664337,0.18767207717491763,0.11444828003404428,0.03890495565439389,0.0,0.04290530003329218,0.11962348108917209,0.20050044186136184,0.2753931590663701,0.35041824215576134,0.4313356941465365,0.5113858780646254,0.5761510416173357,0.6493444804366515,0.7223378434988552,0.7993074681502663,0.8678986390155652,0.8462557779394673,0.7967401387712121,0.756098070435999,0.7008629051515096,0.6566728300277025,0.6386829125697857,0.637763878255758,0.6538501724773211,0.6695591416396991,0.6949149659046241,0.7098406662464312,0.6773182977190371,0.631370338927661,0.5875072885781849,0.558693594723344,0.5546766308328759,0.5628849358266688,0.5697398383291445,0.5753932923452592,0.5690965691037242,0.5800272023589756,0.5890862665957917,0.5898121259419753,0.5996248550094267,0.5983662974590418,0.5977270749320458,0.6016194688083707,0.6102196051328055,0.6490521011505117,0.6546659967284811,0.6467882685255142,0.6381771206469731,0.6426986817914613,0.6433503150065567,0.6440858555834956,0.644768643185655,0.6297632288012651,0.6227214780788444,0.6181007888127965,0.6093214594836023,0.6083631769465105,0.6014926570803096,0.6032314798368339,0.6353184195270716,0.6842486148859197,0.7288244460603241,0.7491060112938515,0.7344357680651861,0.7052797021120387,0.6877420926893434,0.6740274303008276,0.6786691606122037,0.7031190255060147,0.7611012042170597,0.8119337457781084,0.8471547599162328,0.903032831616466,0.9543451174971627,1.0,0.9744258283530605,0.9039815844237302,0.8241218764171938,0.7520373211531202,0.6774308345548823,0.6147274406971479,0.5364291151096672,0.4573639451706264,0.4294197261233583,0.4907104891014902,0.560101141263663,0.616640798414716,0.6258671285125632,0.612263408590322,0.5883958008536165,0.5773035864791809,0.5695589451882914,0.5714652125257533,0.5728260500135405,0.5623716772063492,0.5608673727120785,0.5600897189004368,0.5647658738818484,0.558863373814465,0.5483977597350367,0.5312538173745347,0.5324686483700038,0.5352839449806857,0.5286990344267761,0.547923506901357,0.5992705516750836,0.6466319527997819,0.6806441482850913,0.6748876888073103,0.6490796297715824,0.6283051756724634,0.6183426978156756,0.6109612219419636,0.6163896641566087,0.6477811092882395,0.6987764638840859,0.7419681310199726,0.7885896664341967,0.8500651323548691,0.9255867002952276,0.9878900512640909,0.9895662538375296,0.9244432385002503,0.8513679006000219,0.7706955634282768,0.6919074682025808,0.6200384710874762,0.5399803342915066,0.45894791552293523,0.38005576583248124,0.3619668669391001,0.4253730508855591,0.49470725821516326,0.5588287562276442,0.5920285369114549,0.6105880545447651,0.6040371057862681,0.5931878429332453,0.5977420453405111,0.6038246005741819,0.622793710878998,0.634977861380579,0.6366612451075628,0.629419575033511,0.6366884745596084,0.6343572341502379,0.6247343233960101,0.624709839888633,0.6156339966703488,0.6162593520299349,0.6224044287619264,0.607266911480687,0.6196467475035732,0.661215046609803,0.7077723150701489,0.7489841084394397,0.7550248158694259,0.7288485093761929,0.7040113356600797,0.6922629052400762,0.685709414299287,0.6852840667472311,0.7255266619427241,0.7712877447243751,0.8109260269258765,0.8624313200108147
0,1,2,3,4,5,6,7,8,9,10,11,12,13,14,15,16,17,18,19,20,21,22,23,24,25,26,27,28,29,30,31,32,33,34,35,36,37,38,39,40,41,42,43,44,45,46,47,48,49,50,51,52,53,54,55,56,57,58,59,60,61,62,63,64,65,66,67,68,69,70,71,72,73,74,75,76,77,78,79,80,81,82,83,84,85,86,87,88,89,90,91,92,93,94,95,96,97,98,99,100,101,102,103,104,105,106,107,108,109,110,111,112,113,114,115,116,117,118,119,120,121,122,123,124,125,126,127,128,129,130,131,132,133,134,135,136,137,138,139,140,141,142,143,144,145,146,147,148,149,150,151,152,153,154,155,156,157,158,159,160,161,162,163,164,165,166,167,168,169,170,171,172,173,174,175,176,177,178,179,180,181,182,183,184,185,186,187,188,189,190,191,192,193,194,195,196,197,198,199,200,201,202,203,204,205,206,207,208,209,210,211,212,213,214,215,216,217,218,219,220,221,222,223,224,225,226,227,228,229,230,231,232,233,234,235,236,237,238,239,240,241,242,243,244,245,246,247,248,249,250,251,252,253,254
0.5572835976156947,0.5980769497560701,0.6542525638581964,0.6926560428541719,0.7429860408739593,0.7894472380789368,0.8159394860768214,0.8147945087540676,0.80369509629304,0.7931537479730675,0.7935367557112349,0.8001801214091593,0.7885083247430373,0.7865128185799788,0.8109681049832216,0.8412823174258282,0.8433769158432431,0.7934628928232281,0.7211765735578815,0.6441710705802035,0.5710353902625305,0.49317383925409986,0.4162492362536496,0.3425404507553008,0.26404798871701096,0.19071077194553399,0.11421330355893888,0.04415169920611339,0.026686497338966664,0.09346985877352854,0.1728556724275334,0.2523213074087428,0.3292114246119061,0.4029458799542418,0.4820517081391409,0.5615423267943482,0.6410331312964337,0.7205236174371894,0.7987426926576857,0.8407706105136545,0.8434476208933901,0.8306154235069674,0.8045951769515267,0.7671280956737616,0.7188086018331659,0.6750836934814992,0.64581154309328,0.6594291320754466,0.7078405910847598,0.7594551096777837,0.7978960817045637,0.8095776183040755,0.8049411281481624,0.7957185057156668,0.7941773100524707,0.7989413995842092,0.7815786692624609,0.7800676356603224,0.8077731950840299,0.8360382008207052,0.8404841481332095,0.8100905778037233,0.7397929479170406,0.6626782046159454,0.5896354670003787,0.5117977839543935,0.4386894328639237,0.372264524930914,0.3136355761803674,0.24383265666045306,0.1664419751008238,0.08972452225362426,0.01921318562400376,0.0,0.06708652138952209,0.14324807260890737,0.2175144582128734,0.2967678088572546,0.3762586133593404,0.4557494178614254,0.5351162124700932,0.6102339874023213,0.6855588530892807,0.7647168783685905,0.8235817152080172,0.8286227564554225,0.8314411502971502,0.8128533185801754,0.7818610955036469,0.7377513910959741,0.6954708563653453,0.6621122053127051,0.6696324788492702,0.7158342246722798,0.7659751802219743,0.806972534714387,0.8227195884363385,0.8205137060342964,0.8110249216209782,0.8028564832354761,0.8058389406433977,0.7933147369491411,0.7830563355811357,0.806857975640271,0.8371058333124526,0.8378887006447366,0.8082480478427789,0.7392580912366227,0.6632075063137832,0.5900373308865878,0.5130851469132744,0.4398544895899923,0.3611142400446643,0.2849949081687505,0.2106242896122319,0.13231679474149705,0.059589357513200825,0.0021714561094489104,0.033282734972940764,0.10842806522690596,0.18204382867470803,0.26111408401921676,0.34060464957531733,0.42009545407740223,0.49958625857948724,0.579077063081572,0.6585678675836588,0.7380183038602526,0.8086783923118095,0.8285225946135124,0.8343933196780171,0.8215157273932288,0.7915762957715278,0.7470982738038858,0.7001629629232913,0.6614660424431738,0.654220925978614,0.6910150861253508,0.7426226241404374,0.785836051376918,0.8163373248108532,0.8199124638203663,0.7838625773814099,0.7341115570962626,0.6910738537565455,0.6978930961201757,0.7396624192194887,0.7843413716991958,0.8262802458573422,0.8510888040008893,0.8611792433474585,0.8800801924713713,0.9389918073740045,0.9836851902046964,0.9403373716278849,0.8619764900978002,0.7839811117862916,0.7108723714795611,0.6322644432824951,0.5543568001262671,0.526196873220707,0.5913249146409336,0.6663417723590035,0.7412589019664386,0.8145195771476621,0.878101610801719,0.8828177757574105,0.8702959052424726,0.85619645909056,0.8218728761469223,0.8141513187246914,0.8295718244952821,0.8264239859324201,0.835333478782158,0.8456888800684208,0.8484995483792035,0.8339141477393637,0.7951068397379515,0.7449129003696979,0.7008974695767323,0.7030054277480438,0.7428869399209732,0.7867357135947795,0.8244522279762359,0.8490105787137361,0.8587759505455179,0.8844582800740206,0.9493697268471633,0.9932050741874996,0.9465793764300645,0.8678156874242637,0.7886046213313038,0.7145080741603922,0.6380717387540946,0.5586302254616295,0.48516716845412233,0.48870937033798834,0.559950485375651,0.6380881399325238,0.7111250878216488,0.7876819347615356,0.858674512584233,0.8990509629959988,0.8727199253397291,0.8631653257519543,0.8388998681751232,0.8061217426245422,0.8096581941186329,0.8224214731817723,0.8235233854028856,0.8301021690012782,0.8379791239354832,0.8326030797434614,0.8139113362085784,0.771074824732475,0.7164677021152448,0.6785628098073897,0.6971431035848952,0.7418666621414653,0.7879327873953175,0.8257116950569336,0.8520831466108274,0.8694313500935502,0.8814890281816441,0.9372905640599902,1.0,0.9967502546298386,0.9250531656730423,0.8456050546473906,0.7661142501453055,0.6866234456432168,0.6071664947050976,0.532191277807256,0.5130310781704026,0.5812494298217403,0.6556673046696084,0.7307023585201697,0.8034689219596478,0.8739498826943042,0.9076028207371842,0.8795470970358328,0.8676192180099365,0.8391836750242316,0.8128607052036712,0.8134391914241728,0.8275638779349836,0.8225439628679896,0.8186942326155024,0.8274892928386588,0.8377294391249337,0.8396661794845306,0.8228765337274939,0.7843489571490181,0.7360717684456464,0.6878019339549386
0,1,2,3,4,5,6,7,8,9,10,11,12,13,14,15,16,17,18,19,20,21,22,23,24,25,26,27,28,29,30,31,32,33,34,35,36,37,38,39,40,41,42,43,44,45,46,47,48,49,50,51,52,53,54,55,56,57,58,59,60,61,62,63,64,65,66,67,68,69,70,71,72,73,74,75,76,77,78,79,80,81,82,83,84,85,86,87,88,89,90,91,92,93,94,95,96,97,98,99,100,101,102,103,104,105,106,107,108,109,110,111,112,113,114,115,116,117,118,119,120,121,122,123,124,125,126,127,128,129,130,131,132,133,134,135,136,137,138,139,140,141,142,143,144,145,146,147,148,149,150,151,152,153,154,155,156,157,158,159,160,161,162,163,164,165,166,167,168,169,170,171,172,173,174,175,176,177,178,179,180,181,182,183,184,185,186,187,188,189,190,191,192,193,194,195,196,197,198,199,200,201,202,203,204,205,206,207,208,209,210,211,212,213,214,215,216,217,218,219,220,221,222,223,224,225,226,227,228,229,230,231,232,233,234,235,236,237,238,239,240,241,242,243,244,245,246,247,248,249,250,251,252,253,254
0.5572835976156947,0.5980769497560701,0.6542525638581964,0.6926560428541719,0.7429860408739593,0.7894472380789368,0.8159394860768214,0.8147945087540676,0.80369509629304,0.7931537479730675,0.7935367557112349,0.8001801214091593,0.7885083247430373,0.7865128185799788,0.8109681049832216,0.8412823174258282,0.8433769158432431,0.7934628928232281,0.7211765735578815,0.6441710705802035,0.5710353902625305,0.49317383925409986,0.4162492362536496,0.3425404507553008,0.26404798871701096,0.19071077194553399,0.11421330355893888,0.04415169920611339,0.026686497338966664,0.09346985877352854,0.1728556724275334,0.2523213074087428,0.3292114246119061,0.4029458799542418,0.4820517081391409,0.5615423267943482,0.6410331312964337,0.7205236174371894,0.7987426926576857,0.8407706105136545,0.8434476208933901,0.8306154235069674,0.8045951769515267,0.7671280956737616,0.7188086018331659,0.6750836934814992,0.64581154309328,0.6594291320754466,0.7078405910847598,0.7594551096777837,0.7978960817045637,0.8095776183040755,0.8049411281481624,0.7957185057156668,0.7941773100524707,0.7989413995842092,0.7815786692624609,0.7800676356603224,0.8077731950840299,0.8360382008207052,0.8404841481332095,0.8100905778037233,0.7397929479170406,0.6626782046159454,0.5896354670003787,0.5117977839543935,0.4386894328639237,0.372264524930914,0.3136355761803674,0.24383265666045306,0.1664419751008238,0.08972452225362426,0.01921318562400376,0.0,0.06708652138952209,0.14324807260890737,0.2175144582128734,0.2967678088572546,0.3762586133593404,0.4557494178614254,0.5351162124700932,0.6102339874023213,0.6855588530892807,0.7647168783685905,0.8235817152080172,0.8286227564554225,0.8314411502971502,0.8128533185801754,0.7818610955036469,0.7377513910959741,0.6954708563653453,0.6621122053127051,0.6696324788492702,0.7158342246722798,0.7659751802219743,0.806972534714387,0.8227195884363385,0.8205137060342964,0.8110249216209782,0.8028564832354761,0.8058389406433977,0.7933147369491411,0.7830563355811357,0.806857975640271,0.8371058333124526,0.8378887006447366,0.8082480478427789,0.7392580912366227,0.6632075063137832,0.5900373308865878,0.5130851469132744,0.4398544895899923,0.3611142400446643,0.2849949081687505,0.2106242896122319,0.13231679474149705,0.059589357513200825,0.0021714561094489104,0.033282734972940764,0.10842806522690596,0.18204382867470803,0.26111408401921676,0.34060464957531733,0.42009545407740223,0.49958625857948724,0.579077063081572,0.6585678675836588,0.7380183038602526,0.8086783923118095,0.8285225946135124,0.8343933196780171,0.8215157273932288,0.7915762957715278,0.7470982738038858,0.7001629629232913,0.6614660424431738,0.654220925978614,0.6910150861253508,0.7426226241404374,0.785836051376918,0.8163373248108532,0.8199124638203663,0.7838625773814099,0.7341115570962626,0.6910738537565455,0.6978930961201757,0.7396624192194887,0.7843413716991958,0.8262802458573422,0.8510888040008893,0.8611792433474585,0.8800801924713713,0.9389918073740045,0.9836851902046964,0.9403373716278849,0.8619764900978002,0.7839811117862916,0.7108723714795611,0.6322644432824951,0.5543568001262671,0.526196873220707,0.5913249146409336,0.6663417723590035,0.7412589019664386,0.8145195771476621,0.878101610801719,0.8828177757574105,0.8702959052424726,0.85619645909056,0.8218728761469223,0.8141513187246914,0.8295718244952821,0.8264239859324201,0.835333478782158,0.8456888800684208,0.8484995483792035,0.8339141477393637,0.7951068397379515,0.7449129003696979,0.7008974695767323,0.7030054277480438,0.7428869399209732,0.7867357135947795,0.8244522279762359,0.8490105787137361,0.8587759505455179,0.8844582800740206,0.9493697268471633,0.9932050741874996,0.9465793764300645,0.8678156874242637,0.7886046213313038,0.7145080741603922,0.6380717387540946,0.5586302254616295,0.48516716845412233,0.48870937033798834,0.559950485375651,0.6380881399325238,0.7111250878216488,0.7876819347615356,0.858674512584233,0.8990509629959988,0.8727199253397291,0.8631653257519543,0.8388998681751232,0.8061217426245422,0.8096581941186329,0.8224214731817723,0.8235233854028856,0.8301021690012782,0.8379791239354832,0.8326030797434614,0.8139113362085784,0.771074824732475,0.7164677021152448,0.6785628098073897,0.6971431035848952,0.7418666621414653,0.7879327873953175,0.8257116950569336,0.8520831466108274,0.8694313500935502,0.8814890281816441,0.9372905640599902,1.0,0.9967502546298386,0.9250531656730423,0.8456050546473906,0.7661142501453055,0.6866234456432168,0.6071664947050976,0.532191277807256,0.5130310781704026,0.5812494298217403,0.6556673046696084,0.7307023585201697,0.8034689219596478,0.8739498826943042,0.9076028207371842,0.8795470970358328,0.8676192180099365,0.8391836750242316,0.8128607052036712,0.8134391914241728,0.8275638779349836,0.8225439628679896,0.8186942326155024,0.8274892928386588,0.8377294391249337,0.8396661794845306,0.8228765337274939,0.7843489571490181,0.7360717684456464,0.6878019339549386
0,1,2,3,4,5,6,7,8,9,10,11,12,13,14,15,16,17,18,19,20,21,22,23,24,25,26,27,28,29,30,31,32,33,34,35,36,37,38,39,40,41,42,43,44,45,46,47,48,49,50,51,52,53,54,55,56,57,58,59,60,61,62,63,64,65,66,67,68,69,70,71,72,73,74,75,76,77,78,79,80,81,82,83,84,85,86,87,88,89,90,91,92,93,94,95,96,97,98,99,100,101,102,103,104,105,106,107,108,109,110,111,112,113,114,115,116,117,118,119,120,121,122,123,124,125,126,127,128,129,130,131,132,133,134,135,136,137,138,139,140,141,142,143,144,145,146,147,148,149,150,151,152,153,154,155,156,157,158,159,160,161,162,163,164,165,166,167,168,169,170,171,172,173,174,175,176,177,178,179,180,181,182,183,184,185,186,187,188,189,190,191,192,193,194,195,196,197,198,199,200,201,202,203,204,205,206,207,208,209,210,211,212,213,214,215,216,217,218,219,220,221,222,223,224,225,226,227,228,229,230,231,232,233,234,235,236,237,238,239,240,241,242,243,244,245,246,247,248,249,250,251,252,253,254
0.503140710661921,0.494697380060674,0.5135415089307309,0.5307742375720621,0.5318262900682043,0.5114806736076318,0.45595160562978276,0.3935028783008183,0.3265151331171814,0.2629957331325685,0.19310447113261198,0.12738825045197366,0.0607339999530041,0.0015982084788863649,0.014979902331611727,0.07934626126725086,0.14749300981074143,0.21192275157081975,0.28278731640179,0.3540459055363676,0.4243043808567102,0.48790288411694593,0.5575376758707418,0.6287041881067579,0.6951425101845998,0.7468004333240821,0.7192239173663912,0.6583861727978189,0.6074039891191143,0.5776866961844203,0.5591542799541191,0.5468751946675012,0.5392198307882323,0.5256076866092696,0.5041311215940076,0.48007010092413016,0.452980568735343,0.43757499804781785,0.4302909943388691,0.4393021919760889,0.45900007829673894,0.47699082774021306,0.4793403599951669,0.4717042755506189,0.47131933722397923,0.48296448102229483,0.4963137230224717,0.5093435787361942,0.5204404924836863,0.5245554793402831,0.5318870880946365,0.5324604577315362,0.5324605398618663,0.5319342611170648,0.524233191703674,0.5128398647897907,0.49523011815593865,0.4861542239156056,0.5053812224172276,0.5344498716325163,0.5457256619405426,0.5402565299700457,0.5087956030003975,0.4427606638459971,0.37938666609183724,0.31480610904136985,0.2483750276695218,0.1781559769894725,0.11453995823674323,0.046114292536584944,0.0,0.02108198887080981,0.08461480827889578,0.14961039377714824,0.21702129523441416,0.2882376825094568,0.3593215243492227,0.4247625697585846,0.49178397885946246,0.5629836480930368,0.634243988849212,0.7053667905437511,0.7574569828606927,0.7236999118854326,0.6631195077551575,0.6114679526179299,0.5746758339333182,0.5543702859952193,0.5438032223166454,0.5358417475161661,0.5265804348906493,0.5076762296732575,0.4807581639171514,0.4523990032370322,0.43249372714161205,0.42103069580407637,0.43340769407110025,0.4521459761896365,0.47547264066326744,0.49483680060525237,0.4950943968019528,0.491436141826888,0.49202807134104254,0.49993868896229166,0.5088466988535489,0.5175708070092275,0.5220900153074766,0.5221654019148543,0.5221541167329262,0.5198598572492725,0.5125076080164388,0.5118679989214052,0.5106277039080707,0.5006325420692277,0.48897964182558673,0.5024656587731655,0.526489852301903,0.5418501820460269,0.5371974627979994,0.5006260320907854,0.44103611673302656,0.3765789083528428,0.31317331412059524,0.24633764053401586,0.18172213985108043,0.1131222699448371,0.06260740605833859,0.00835779257188718,0.01450586456308467,0.07717401990116657,0.14134640492207606,0.2116419678924668,0.27580300455666706,0.3428669777826556,0.4062261414406316,0.4701206219352394,0.5271846245178733,0.5637597532871856,0.5764082984201355,0.5737864818402181,0.5547618297405441,0.5311301570279316,0.5256175134247327,0.5388334619323603,0.5466233360944546,0.5468743389653952,0.5468778911358023,0.5482897939100579,0.5535245964426974,0.5523711054638394,0.548530800076263,0.5460437878772177,0.5383448386534377,0.531878805322707,0.5231602244924203,0.5180520620845446,0.5253293307456284,0.5225915981099019,0.5031063840093397,0.48156913882473384,0.46100077052095223,0.4569567805747776,0.47574102646238203,0.5024417222685498,0.529781518849624,0.550189831754472,0.5613173061499035,0.5726801253161447,0.5817108403004425,0.5978816911174851,0.6369954323531919,0.6915813026708146,0.7534876796086352,0.8163621582092526,0.8794539206468357,0.9450727408463411,0.986891088280468,0.9556712059898611,0.8937597047011254,0.8236663331474838,0.7568618893434793,0.6912119421706895,0.620115099436584,0.5499881019015316,0.4864249682112036,0.4166237469185612,0.3453671114177763,0.2747903147184718,0.24195317511555792,0.2985409766312124,0.36175158162701604,0.4155850790447726,0.47119924946602953,0.5300588291862569,0.5636508432797989,0.571159747230249,0.572951760623355,0.55437990385468,0.5263270120971533,0.5259473284262632,0.5419028560081709,0.5533460301635675,0.5654181619290071,0.5643185283833296,0.5644540455279967,0.5650276770886642,0.5598831925484324,0.5587820552801854,0.5529150785806285,0.5464470661354341,0.5360401433824094,0.5204449161151035,0.5068979946869427,0.4993780640154384,0.5075751860723661,0.5132160758857616,0.5024165581494162,0.4836970374156466,0.4630747523167855,0.4614250959011652,0.4736065309495585,0.49819723717930864,0.5238742466637241,0.5464729519700311,0.5630967574887675,0.5705617901919642,0.5787715856830937,0.5920081713137986,0.6155390382383743,0.6564425114275658,0.7124011955096095,0.776036143225056,0.8411850043548312,0.9117278361409096,0.9740966487465259,0.9999999999999998,0.9541722962672263,0.8905503109744417,0.8198036497138255,0.7521945185341983,0.6872764123142794,0.6162782759415524,0.5457733771489046,0.4821606683501398,0.42003204435223185,0.36785814310800147,0.3792295181827754,0.4474543999520286,0.5098805759693705,0.5536159555627844,0.5668064714500654,0.5668694058770036,0.5532447445484696,0.5335004741362355,0.534446748302027
0,1,2,3,4,5,6,7,8,9,10,11,12,13,14,15,16,17,18,19,20,21,22,23,24,25,26,27,28,29,30,31,32,33,34,35,36,37,38,39,40,41,42,43,44,45,46,47,48,49,50,51,52,53,54,55,56,57,58,59,60,61,62,63,64,65,66,67,68,69,70,71,72,73,74,75,76,77,78,79,80,81,82,83,84,85,86,87,88,89,90,91,92,93,94,95,96,97,98,99,100,101,102,103,104,105,106,107,108,109,110,111,112,113,114,115,116,117,118,119,120,121,122,123,124,125,126,127,128,129,130,131,132,133,134,135,136,137,138,139,140,141,142,143,144,145,146,147,148,149,150,151,152,153,154,155,156,157,158,159,160,161,162,163,164,165,166,167,168,169,170,171,172,173,174,175,176,177,178,179,180,181,182,183,184,185,186,187,188,189,190,191,192,193,194,195,196,197,198,199,200,201,202,203,204,205,206,207,208,209,210,211,212,213,214,215,216,217,218,219,220,221,222,223,224,225,226,227,228,229,230,231,232,233,234,235,236,237,238,239,240,241,242,243,244,245,246,247,248,249,250,251,252,253,254
