0,1,2,3,4,5,6,7,8,9,10,11,12,13,14,15,16,17,18,19,20,21,22,23,24,25,26,27,28,29,30,31,32,33,34,35,36,37,38,39,40,41,42,43,44,45,46,47,48,49,50,51,52,53,54,55,56,57,58,59,60,61,62,63,64,65,66,67,68,69,70,71,72,73,74,75,76,77,78,79,80,81,82,83,84,85,86,87,88,89,90,91,92,93,94,95,96,97,98,99,100,101,102,103,104,105,106,107,108,109,110,111,112,113,114,115,116,117,118,119,120,121,122,123,124,125,126,127,128,129,130,131,132,133,134,135,136,137,138,139,140,141,142,143,144,145,146,147,148,149,150,151,152,153,154,155,156,157,158,159,160,161,162,163,164,165,166,167,168,169,170,171,172,173,174,175,176,177,178,179,180,181,182,183,184,185,186,187,188,189,190,191,192,193,194,195,196,197,198,199,200,201,202,203,204,205,206,207,208,209,210,211,212,213,214,215,216,217,218,219,220,221,222,223,224,225,226,227,228,229,230,231,232,233,234,235,236,237,238,239,240,241,242,243,244,245,246,247,248,249,250,251,252,253,254
0.7104891413830567,0.7259473382203208,0.7525186387721892,0.7773027611239929,0.8067817216345934,0.8379467195767405,0.874922030417836,0.9150029940525259,0.9503759850754698,0.9510822099995058,0.9142499191359521,0.8770662958915638,0.8405007640224809,0.8045578028331821,0.7772923987439309,0.7424363653386603,0.7207599610232394,0.7069335627642128,0.705784152771709,0.7057833988244879,0.7057833988244879,0.7057832468411416,0.7050780240783476,0.6921597149978349,0.6753631966775373,0.6548422603890689,0.6469794604440624,0.6656304947631329,0.6827334473537974,0.7072905096115112,0.7213463607184347,0.721927785896268,0.7272723042344555,0.7253860553753926,0.67783534038238,0.6350520230780488,0.5790291280548487,0.5170459923658286,0.4632785390938152,0.40883266050771194,0.3468461886098062,0.28769560095565305,0.2379897997879974,0.17671289968919623,0.11638614615852116,0.07337618006883861,0.06838684892488267,0.10700841812090456,0.16527464984850582,0.22617097788785712,0.27533562500064157,0.33540078737962675,0.3974808700271555,0.4575545326998278,0.5069207223172758,0.5676120224294618,0.628598067151259,0.674759435417311,0.7029613781079975,0.7057800190951418,0.7057833988244879,0.7058677315201582,0.7125329121523456,0.7096504880864023,0.7260862907895267,0.7484934848247087,0.7744477258989702,0.8114573391855586,0.8456388045833885,0.88275964483462,0.9207027965645054,0.9579793217411336,0.9692164980950002,0.9380871489890987,0.8971011991567917,0.8563920181979792,0.8229417666820633,0.7838003266691111,0.751292971732787,0.7305557691658993,0.7184846688996709,0.7062252317424282,0.6956023640934479,0.6896922782037742,0.6923812181132454,0.696567833103817,0.6883800104341233,0.6743752649696115,0.6532872991944507,0.6357225118873688,0.6321395427937073,0.6440417983049422,0.6687294572442228,0.6935955405390586,0.7054626938984043,0.7061765445160604,0.7164994604692101,0.7013939871968482,0.6477585068809755,0.59723364602401,0.5393837865850517,0.4839837904674815,0.4311475584573672,0.3692225339015329,0.30721421432368734,0.25351331287602674,0.19900239806463116,0.1370093763715441,0.07590075793830175,0.02981462898218945,0.0169161194265246,0.051904496865051275,0.1081186358020374,0.1610899804770476,0.21633821184089852,0.2783720815097843,0.33924242074924216,0.3883897359211361,0.4485042268232977,0.5098832619733265,0.559931768516075,0.6181388100226171,0.6635140056493407,0.6859175215172963,0.7036640588727563,0.7057813066795333,0.7057851079120323,0.707738850715474,0.7204845458749376,0.7259916514724623,0.7521649009897624,0.7838991576623222,0.8217472609630705,0.8595994634414779,0.9009253274315863,0.9422957018181544,0.985574379021056,1.0,0.9658959507618277,0.9277131030643844,0.8900235839347235,0.8532958906749508,0.8221428836759772,0.7911023673579551,0.7619512096755248,0.7455728848915157,0.7340579476042635,0.7224531080708783,0.7219050200414174,0.7219026938400006,0.7197222321399712,0.7019354007721312,0.6799628467568177,0.6552915037591935,0.6419867781178388,0.6498547713449638,0.6705661705661798,0.7019638074034131,0.7213975447769352,0.7317679946074072,0.7386053174262068,0.745945316452906,0.7149176143235674,0.6683738480237977,0.6175255115517033,0.5662217036200121,0.5044537684432862,0.4423700723096968,0.3802863361672446,0.3182283759586455,0.26161583219557283,0.20991826981878425,0.148073313258267,0.08741539884335614,0.03839734947450468,0.0,0.013552270441379743,0.06501016367888646,0.12424285245824418,0.17383517841059648,0.2350662330358544,0.29714853333894276,0.3576808885803704,0.4069113963968758,0.46727980048364115,0.5285396486805056,0.5780408726109059,0.6282778171242209,0.6788020994673949,0.7159986398290461,0.7218970262388513,0.721904939268811,0.7219049392688119,0.7219243149131187,0.7269233671557878,0.7464522656930734,0.7710343458825353,0.8104854937543697,0.8434428896793982,0.8787229400339456,0.9136387528578149,0.9542964334710051,0.9743573212145828,0.9425328368038501,0.9048370604734681,0.8703118079668939,0.8333794267123502,0.7958502594680694,0.7652823037821617,0.7408187786706928,0.7128579745308317,0.7058062147014601,0.7012107608724696,0.6907868784321369,0.7023753523857854,0.7057416180541471,0.6988243522821347,0.6758887223129815,0.6552572981763349,0.6292999922981939,0.6275690627752004,0.6489156637961999,0.6620710925005961,0.6848239923105202,0.6965594011178395,0.7084314412336772,0.723503053212935,0.7327438344838235,0.7029281376760044,0.656022678811246,0.6071718126418326,0.5477581334505861,0.48610883509130565,0.4356293156150808,0.37761720228916973,0.31554728748102256,0.25346355133857035,0.19137981519611857,0.1293742570887284,0.0779820119097705,0.0676616015481426,0.10390741976559648,0.15201697837762884,0.21267797141294364,0.2715455821748227,0.3213459458601604,0.3828153250315047,0.4448807559639807,0.5022545702037173,0.553295054964615,0.6114036781930419,0.6583796487251061,0.7003624467337564,0.7233960039663243,0.7369129326085315
0,1,2,3,4,5,6,7,8,9,10,11,12,13,14,15,16,17,18,19,20,21,22,23,24,25,26,27,28,29,30,31,32,33,34,35,36,37,38,39,40,41,42,43,44,45,46,47,48,49,50,51,52,53,54,55,56,57,58,59,60,61,62,63,64,65,66,67,68,69,70,71,72,73,74,75,76,77,78,79,80,81,82,83,84,85,86,87,88,89,90,91,92,93,94,95,96,97,98,99,100,101,102,103,104,105,106,107,108,109,110,111,112,113,114,115,116,117,118,119,120,121,122,123,124,125,126,127,128,129,130,131,132,133,134,135,136,137,138,139,140,141,142,143,144,145,146,147,148,149,150,151,152,153,154,155,156,157,158,159,160,161,162,163,164,165,166,167,168,169,170,171,172,173,174,175,176,177,178,179,180,181,182,183,184,185,186,187,188,189,190,191,192,193,194,195,196,197,198,199,200,201,202,203,204,205,206,207,208,209,210,211,212,213,214,215,216,217,218,219,220,221,222,223,224,225,226,227,228,229,230,231,232,233,234,235,236,237,238,239,240,241,242,243,244,245,246,247,248,249,250,251,252,253,254
0.8569931415696574,0.8300574166802486,0.8453250583335503,0.8079526577227423,0.7211847062920604,0.6275020044546631,0.5119866791790679,0.4182774379866734,0.30919348244315525,0.19200695946179192,0.07683699134264366,0.0013817698612044182,0.0,0.04649247914671406,0.09696395679747827,0.20406909785180272,0.28826882608810145,0.3738427812590146,0.45413451674177985,0.4848480815799814,0.5287819588740472,0.6060219965541442,0.6282727056490627,0.5562131687690357,0.4863496509826657,0.5388120362361599,0.6552416518456559,0.7724448470139968,0.8853887581464859,0.9380221841191396,0.9172221022770684,0.8718150172032741,0.8576969097556129,0.8318493764601813,0.8294294919628262,0.819702992985003,0.7977812586411952,0.7957970230400297,0.7711361458991561,0.7504452966912467,0.7218639789700152,0.6920980185277923,0.6467911859507822,0.6257365019673218,0.6081542583340145,0.6585097152733219,0.7130202395880669,0.7964096615798084,0.8441550829949342,0.8895678971553496,0.9187050099232632,0.9265181187328224,0.9118593075405705,0.8901895329025136,0.8641848581970706,0.8648021214434438,0.8924579544230209,0.9312191892516966,0.9657610255458149,0.9874187219589494,0.9632543039988164,0.9783073300910345,0.9614694095299656,0.9589959773224148,0.9635585458364977,0.965812461270291,0.9412817982907979,0.841651212495913,0.7383821830268325,0.6393933695955987,0.5224172307290109,0.4054715116141985,0.3064209992513467,0.20305625434633967,0.0870854086345636,0.0057512365837739665,7.719639801617717e-05,0.0918726081653185,0.19862981161855942,0.2943669660405037,0.4110529694294911,0.527424029311871,0.6221024548941694,0.7302949834064245,0.83932237296656,0.9313067388198464,0.971643020637198,0.9195100697884158,0.8918216385638864,0.8653778302840971,0.8516927971178969,0.8473212306899205,0.8320458659004899,0.8023347774794773,0.7667195856789135,0.732445712674842,0.7069388886156869,0.698174495346648,0.6627125120398984,0.6283334503158997,0.6064857850587888,0.6437766061553853,0.6887625791623924,0.7438079744920065,0.7768604951311646,0.8246086910970583,0.8716244783327687,0.8939247513505775,0.901383983059084,0.9302962370176724,0.9569249838323524,0.9589849860611315,0.9564759454261695,0.9304144517879944,0.9079963837918603,0.9036843823601837,0.8892453738854114,0.8029945493492079,0.6926864966052291,0.575496205897994,0.45829071766600293,0.341085229434011,0.22449430055179853,0.1320054374810118,0.06796911173620135,0.0959353646354435,0.17562217474624742,0.28547199491007813,0.40267124144123745,0.5175062084172755,0.6088951830961236,0.7182343202983397,0.7894724041983192,0.8715125509014001,0.9590153799588332,1.0,0.9581739098876652,0.8791456519979359,0.8444915619465139,0.8296114522604432,0.8311090357024105,0.8564457378732921,0.8563930895575194,0.8098357920262185,0.758887701485512,0.6802411615894988,0.6035112311619573,0.5433358745712207,0.506395560830005,0.4854694008831757,0.5110126751545465,0.5719235157999831,0.6408824717309907,0.7187370485676716,0.8017315341992983,0.853600453469884,0.8895228322423732,0.8406836905679187,0.8040715424763869,0.7668732426424087,0.7655984670645726,0.8015896094953296,0.8343552338733193,0.8865849244262067,0.9228332936391244,0.9266022792865156,0.9254856877515749,0.8929046973127948,0.8659422618050003,0.9036331882448811,0.8834283442393307,0.7939306546148384,0.6778445014537118,0.5610172047064923,0.4635393618678174,0.35859280976972396,0.26224573521121375,0.2666757912187778,0.365903993596012,0.4571846316966335,0.5716864451445929,0.6856571089923458,0.7767453371798636,0.8798720264118192,0.9484606465125065,0.9310316072799605,0.8881672360835022,0.8516078645082095,0.821510947014831,0.8063259166693486,0.809668976365427,0.81607441482379,0.8016180184682336,0.7312434608846861,0.6841244085174942,0.6295984017899698,0.620991406318554,0.6050008859334506,0.5760863346320146,0.5932251259335972,0.635307332061557,0.6905443222070575,0.7539844562736571,0.7391131289343296,0.7637685029258812,0.7974837641758876,0.8386859343641513,0.8616688173784999,0.8836820853377452,0.924678394543748,0.9048429926888177,0.9162369452869479,0.8760696831557624,0.7833081487201632,0.6776537858559806,0.5831609918423126,0.4750470184751343,0.36610032655258706,0.27204810266603197,0.15650520916482158,0.07281890047723483,0.06279025020938533,0.1468545106734842,0.23834374106062572,0.35352958246406185,0.4707350706960538,0.5879400979535356,0.7037621072235352,0.7959774728025755,0.9066042380740926,0.9763859104096424,0.9311497689597603,0.891950848515366,0.8655876455055465,0.8869770681182301,0.9160318421654017,0.9197887890016911,0.8909981627383496,0.8464884141748099,0.7876917811885722,0.7146338271648167,0.6843109153661953,0.6678277413343991,0.6810846921347213,0.7262154400384828,0.7641658310010913,0.8426391951395384,0.8342866071624675,0.7986516994893185,0.7970832308815625,0.7993455579390316,0.826341462519057,0.8640271865211551,0.9092292225184462,0.9616968352810051
0,1,2,3,4,5,6,7,8,9,10,11,12,13,14,15,16,17,18,19,20,21,22,23,24,25,26,27,28,29,30,31,32,33,34,35,36,37,38,39,40,41,42,43,44,45,46,47,48,49,50,51,52,53,54,55,56,57,58,59,60,61,62,63,64,65,66,67,68,69,70,71,72,73,74,75,76,77,78,79,80,81,82,83,84,85,86,87,88,89,90,91,92,93,94,95,96,97,98,99,100,101,102,103,104,105,106,107,108,109,110,111,112,113,114,115,116,117,118,119,120,121,122,123,124,125,126,127,128,129,130,131,132,133,134,135,136,137,138,139,140,141,142,143,144,145,146,147,148,149,150,151,152,153,154,155,156,157,158,159,160,161,162,163,164,165,166,167,168,169,170,171,172,173,174,175,176,177,178,179,180,181,182,183,184,185,186,187,188,189,190,191,192,193,194,195,196,197,198,199,200,201,202,203,204,205,206,207,208,209,210,211,212,213,214,215,216,217,218,219,220,221,222,223,224,225,226,227,228,229,230,231,232,233,234,235,236,237,238,239,240,241,242,243,244,245,246,247,248,249,250,251,252,253,254
0.1000062576500178,0.10344944045405624,0.13714289366788535,0.19065793584286395,0.2504682272930694,0.2786628435009342,0.26723499611575807,0.2577725025921853,0.23904079242279286,0.19729959617455517,0.14375705152827134,0.10475417141819321,0.056348872302888875,0.020792245451291436,0.0015567713307294007,0.0005018663902012221,0.018248505902130674,0.07197991441341633,0.1169550322855164,0.16045866283069055,0.20226858975348838,0.22292196224913985,0.25184910538963434,0.28090975227978143,0.26931810351754715,0.23826524788126457,0.2011460629552171,0.14368815102508625,0.08304377121505668,0.02558985283979265,0.0026862775919469506,9.64949363257972e-06,0.0,0.0020316955205199605,0.0293739548618559,0.023858122456183573,0.00890711706102687,0.037145153145119014,0.09039775217007362,0.12511933368516193,0.14785723853635035,0.14225452587541465,0.17704191034959926,0.18396889509544945,0.20101782540514845,0.21744379980806894,0.2409840959882943,0.24912724313815282,0.23891540692487023,0.24502844422306236,0.21315060808880215,0.17162203565449863,0.18576381138509257,0.22478168615134209,0.2815007106077192,0.329013815423322,0.3883973922062629,0.43881918994387803,0.49327082119964816,0.5537455195583583,0.6045101988047179,0.6585205519302728,0.712552733704316,0.7505344214927523,0.716703917319498,0.6688808149756356,0.6115378316127247,0.5509813989559817,0.49905794657221136,0.446187975358491,0.39096138252146995,0.3412906585649118,0.2817752928806563,0.23450101567273052,0.1981584652930901,0.18134287376856761,0.16833244984331586,0.18689685388332,0.21513777092965558,0.22978617616079067,0.24163862273210412,0.23440817994453367,0.2496553459425055,0.2654680695799807,0.26953042265239313,0.2884780315587019,0.3163387621265614,0.3394260071013768,0.35182197061471454,0.3745156868637771,0.4111764820300019,0.4412227653231984,0.43906825098486424,0.4161317451286797,0.3926050614280272,0.3675719458519269,0.3430729744985461,0.3334316356193603,0.3329908091335607,0.32157171342927526,0.32937824078389255,0.34281592910642766,0.33685871070133233,0.34850746241170105,0.3500157342885193,0.35455741956428266,0.36651553919039026,0.37688716195689276,0.37655216604504993,0.36693659083337105,0.37653488069525265,0.38723965517675873,0.40599051659038654,0.41290496375039076,0.3947098049183362,0.39035574659255845,0.40968999100182524,0.4006900379354592,0.3986329764376624,0.38217085321425426,0.3574645604775113,0.3522570602433306,0.3736313425504916,0.37840930482738555,0.3690031054508336,0.3831311922756342,0.3984942248402148,0.4132856486330825,0.4161221460830147,0.4022398038937012,0.37730525549956884,0.3536958336476759,0.37237480578880255,0.42148388452307506,0.4699755665056551,0.5297229952552729,0.5784361130668851,0.6348863897721961,0.6954572995744766,0.7485494888895361,0.8002684796469581,0.8557227309644952,0.8736629050456646,0.8245037693785289,0.7640603775258068,0.7131147787805223,0.6592028221872415,0.5986037458501863,0.5379520217992089,0.4808900159950795,0.43278647020608174,0.3817396647557407,0.33213015632185616,0.30288538056132186,0.31056595673460485,0.32693511301765454,0.3491478786666362,0.36939271471660184,0.3831279406805992,0.3899360850651883,0.392441631509854,0.3995658853594408,0.41866257505111193,0.43284333103069406,0.4532233636897387,0.47726285069467034,0.4942246041796712,0.5301124791137486,0.5656740647995915,0.6003668058160514,0.6261572999339879,0.6234543719173304,0.6240021499686224,0.5866588033302165,0.5463690500519394,0.5167879190574372,0.4903627184484667,0.45591623396107606,0.4354370744643119,0.416342686952309,0.4046849807324264,0.4064201284062352,0.407558571002558,0.4252708744165403,0.4120023306533285,0.4004020336792702,0.4002735510898403,0.41340080242563015,0.43224523882472177,0.42711614621778127,0.40461645315848127,0.4174358381095109,0.4330129415105102,0.43890210439338073,0.44613967769938334,0.4205455874468824,0.4264013936229918,0.4333479030052132,0.4396922325356565,0.44613878432890797,0.4235243566345379,0.4227307639062592,0.42974762233273633,0.4081259929779897,0.4140692255869025,0.4181373935497983,0.4265693407478377,0.4196965839308726,0.45268440112349584,0.46922605414422724,0.4878807994555099,0.5096052933377346,0.5010885033870145,0.4964982113421925,0.46813888974087803,0.4527315892666399,0.480523714997374,0.5342601417716635,0.5819602376702759,0.6418021983425821,0.6997802358721992,0.7473685295208004,0.8070634388406832,0.8614821622981297,0.911946561050585,0.9720483006356146,1.0,0.961046586624207,0.9023389696369564,0.8457339797142853,0.7971488989715496,0.7370810232857719,0.6843974425934229,0.6324196532103739,0.5810881823218432,0.5287685508540605,0.4819271083434433,0.4377345322077586,0.4056251602923058,0.41044234477844777,0.4322133174516738,0.42200575359724324,0.419652185133641,0.44120566563241104,0.43946116711887884,0.44950951555746776,0.44223598206844317,0.4334499558540412,0.4358136052674908,0.4494527582664749,0.4696784107008236,0.4995581652275991,0.5223962740730794,0.547589921979545,0.5375117687517963
0,1,2,3,4,5,6,7,8,9,10,11,12,13,14,15,16,17,18,19,20,21,22,23,24,25,26,27,28,29,30,31,32,33,34,35,36,37,38,39,40,41,42,43,44,45,46,47,48,49,50,51,52,53,54,55,56,57,58,59,60,61,62,63,64,65,66,67,68,69,70,71,72,73,74,75,76,77,78,79,80,81,82,83,84,85,86,87,88,89,90,91,92,93,94,95,96,97,98,99,100,101,102,103,104,105,106,107,108,109,110,111,112,113,114,115,116,117,118,119,120,121,122,123,124,125,126,127,128,129,130,131,132,133,134,135,136,137,138,139,140,141,142,143,144,145,146,147,148,149,150,151,152,153,154,155,156,157,158,159,160,161,162,163,164,165,166,167,168,169,170,171,172,173,174,175,176,177,178,179,180,181,182,183,184,185,186,187,188,189,190,191,192,193,194,195,196,197,198,199,200,201,202,203,204,205,206,207,208,209,210,211,212,213,214,215,216,217,218,219,220,221,222,223,224,225,226,227,228,229,230,231,232,233,234,235,236,237,238,239,240,241,242,243,244,245,246,247,248,249,250,251,252,253,254
0.1000062576500178,0.10344944045405624,0.13714289366788535,0.19065793584286395,0.2504682272930694,0.2786628435009342,0.26723499611575807,0.2577725025921853,0.23904079242279286,0.19729959617455517,0.14375705152827134,0.10475417141819321,0.056348872302888875,0.020792245451291436,0.0015567713307294007,0.0005018663902012221,0.018248505902130674,0.07197991441341633,0.1169550322855164,0.16045866283069055,0.20226858975348838,0.22292196224913985,0.25184910538963434,0.28090975227978143,0.26931810351754715,0.23826524788126457,0.2011460629552171,0.14368815102508625,0.08304377121505668,0.02558985283979265,0.0026862775919469506,9.64949363257972e-06,0.0,0.0020316955205199605,0.0293739548618559,0.023858122456183573,0.00890711706102687,0.037145153145119014,0.09039775217007362,0.12511933368516193,0.14785723853635035,0.14225452587541465,0.17704191034959926,0.18396889509544945,0.20101782540514845,0.21744379980806894,0.2409840959882943,0.24912724313815282,0.23891540692487023,0.24502844422306236,0.21315060808880215,0.17162203565449863,0.18576381138509257,0.22478168615134209,0.2815007106077192,0.329013815423322,0.3883973922062629,0.43881918994387803,0.49327082119964816,0.5537455195583583,0.6045101988047179,0.6585205519302728,0.712552733704316,0.7505344214927523,0.716703917319498,0.6688808149756356,0.6115378316127247,0.5509813989559817,0.49905794657221136,0.446187975358491,0.39096138252146995,0.3412906585649118,0.2817752928806563,0.23450101567273052,0.1981584652930901,0.18134287376856761,0.16833244984331586,0.18689685388332,0.21513777092965558,0.22978617616079067,0.24163862273210412,0.23440817994453367,0.2496553459425055,0.2654680695799807,0.26953042265239313,0.2884780315587019,0.3163387621265614,0.3394260071013768,0.35182197061471454,0.3745156868637771,0.4111764820300019,0.4412227653231984,0.43906825098486424,0.4161317451286797,0.3926050614280272,0.3675719458519269,0.3430729744985461,0.3334316356193603,0.3329908091335607,0.32157171342927526,0.32937824078389255,0.34281592910642766,0.33685871070133233,0.34850746241170105,0.3500157342885193,0.35455741956428266,0.36651553919039026,0.37688716195689276,0.37655216604504993,0.36693659083337105,0.37653488069525265,0.38723965517675873,0.40599051659038654,0.41290496375039076,0.3947098049183362,0.39035574659255845,0.40968999100182524,0.4006900379354592,0.3986329764376624,0.38217085321425426,0.3574645604775113,0.3522570602433306,0.3736313425504916,0.37840930482738555,0.3690031054508336,0.3831311922756342,0.3984942248402148,0.4132856486330825,0.4161221460830147,0.4022398038937012,0.37730525549956884,0.3536958336476759,0.37237480578880255,0.42148388452307506,0.4699755665056551,0.5297229952552729,0.5784361130668851,0.6348863897721961,0.6954572995744766,0.7485494888895361,0.8002684796469581,0.8557227309644952,0.8736629050456646,0.8245037693785289,0.7640603775258068,0.7131147787805223,0.6592028221872415,0.5986037458501863,0.5379520217992089,0.4808900159950795,0.43278647020608174,0.3817396647557407,0.33213015632185616,0.30288538056132186,0.31056595673460485,0.32693511301765454,0.3491478786666362,0.36939271471660184,0.3831279406805992,0.3899360850651883,0.392441631509854,0.3995658853594408,0.41866257505111193,0.43284333103069406,0.4532233636897387,0.47726285069467034,0.4942246041796712,0.5301124791137486,0.5656740647995915,0.6003668058160514,0.6261572999339879,0.6234543719173304,0.6240021499686224,0.5866588033302165,0.5463690500519394,0.5167879190574372,0.4903627184484667,0.45591623396107606,0.4354370744643119,0.416342686952309,0.4046849807324264,0.4064201284062352,0.407558571002558,0.4252708744165403,0.4120023306533285,0.4004020336792702,0.4002735510898403,0.41340080242563015,0.43224523882472177,0.42711614621778127,0.40461645315848127,0.4174358381095109,0.4330129415105102,0.43890210439338073,0.44613967769938334,0.4205455874468824,0.4264013936229918,0.4333479030052132,0.4396922325356565,0.44613878432890797,0.4235243566345379,0.4227307639062592,0.42974762233273633,0.4081259929779897,0.4140692255869025,0.4181373935497983,0.4265693407478377,0.4196965839308726,0.45268440112349584,0.46922605414422724,0.4878807994555099,0.5096052933377346,0.5010885033870145,0.4964982113421925,0.46813888974087803,0.4527315892666399,0.480523714997374,0.5342601417716635,0.5819602376702759,0.6418021983425821,0.6997802358721992,0.7473685295208004,0.8070634388406832,0.8614821622981297,0.911946561050585,0.9720483006356146,1.0,0.961046586624207,0.9023389696369564,0.8457339797142853,0.7971488989715496,0.7370810232857719,0.6843974425934229,0.6324196532103739,0.5810881823218432,0.5287685508540605,0.4819271083434433,0.4377345322077586,0.4056251602923058,0.41044234477844777,0.4322133174516738,0.42200575359724324,0.419652185133641,0.44120566563241104,0.43946116711887884,0.44950951555746776,0.44223598206844317,0.4334499558540412,0.4358136052674908,0.4494527582664749,0.4696784107008236,0.4995581652275991,0.5223962740730794,0.547589921979545,0.5375117687517963
0,1,2,3,4,5,6,7,8,9,10,11,12,13,14,15,16,17,18,19,20,21,22,23,24,25,26,27,28,29,30,31,32,33,34,35,36,37,38,39,40,41,42,43,44,45,46,47,48,49,50,51,52,53,54,55,56,57,58,59,60,61,62,63,64,65,66,67,68,69,70,71,72,73,74,75,76,77,78,79,80,81,82,83,84,85,86,87,88,89,90,91,92,93,94,95,96,97,98,99,100,101,102,103,104,105,106,107,108,109,110,111,112,113,114,115,116,117,118,119,120,121,122,123,124,125,126,127,128,129,130,131,132,133,134,135,136,137,138,139,140,141,142,143,144,145,146,147,148,149,150,151,152,153,154,155,156,157,158,159,160,161,162,163,164,165,166,167,168,169,170,171,172,173,174,175,176,177,178,179,180,181,182,183,184,185,186,187,188,189,190,191,192,193,194,195,196,197,198,199,200,201,202,203,204,205,206,207,208,209,210,211,212,213,214,215,216,217,218,219,220,221,222,223,224,225,226,227,228,229,230,231,232,233,234,235,236,237,238,239,240,241,242,243,244,245,246,247,248,249,250,251,252,253,254
0.4670042905798484,0.46429388829495677,0.4500916355142568,0.448047783884844,0.4353044761042839,0.45722244448381755,0.510222774517751,0.5588656470607867,0.6092887598865806,0.6644681073079748,0.7201906271536069,0.78451661786983,0.8369208309380842,0.8963104412071248,0.9597291664969752,0.9999999999999996,0.9971491667391197,0.951269789118518,0.8949163048089899,0.8302210908608965,0.7655234134178932,0.7072801946769038,0.6537878818369465,0.5892795523547849,0.5245437214699025,0.4598078905850187,0.39507205970013626,0.3303942153775874,0.2728897332101603,0.21869335581204297,0.15417733537615996,0.1053417804512935,0.1461880766926038,0.205520220689126,0.257935998460034,0.31602346583036267,0.3644617296630712,0.39288048214180815,0.40539269693756363,0.41097441795932355,0.39280040873331545,0.36590998182634626,0.3404702819598775,0.30832767723093735,0.2778742170249928,0.26165794258738106,0.2743808883040293,0.29975004628928126,0.32504370137961214,0.35342807795822484,0.3589862318747805,0.3589886813762986,0.3547600781144715,0.341510387410191,0.34099610936445446,0.34099610936445535,0.34090521785227734,0.332342647191318,0.3330606944661523,0.34439907559213045,0.35735837379815516,0.34401817632645004,0.34099808769208595,0.34088538473182384,0.33149150196894084,0.33386683092801217,0.3351867731525857,0.32327741343894045,0.3223202742713318,0.3039677899200841,0.279040380734886,0.24810972583509638,0.2157417820409142,0.18337379603167303,0.15067650106345187,0.1145574058010097,0.1254673113536695,0.16094771011151998,0.19807634985857137,0.23888067206182528,0.27853235616260763,0.3215554775766982,0.36271484575560686,0.39106658833682806,0.41039624534883457,0.4300157861799736,0.4207127913924018,0.4094044064924076,0.3957017415377053,0.390169685533583,0.365476791030392,0.3760201740897111,0.4084924287841716,0.4544664892667063,0.505073793463394,0.5553482766894717,0.6157162861146706,0.6662348914970422,0.7282857408371632,0.7922176921029007,0.8427797670577188,0.8866523324777007,0.8898767087639077,0.8461426417847053,0.7822163307717793,0.7174804998868973,0.6527446690020136,0.588008838117132,0.5232734549590288,0.45989695674277264,0.4095347558144029,0.34706587313267434,0.28233146872613624,0.2175956378412538,0.15285980695637136,0.08812397607148803,0.024073201881495532,0.0,0.04437078811013695,0.10491417928174762,0.15538349854394662,0.21137176709923056,0.2640078622269031,0.3085904465536986,0.32936679569963045,0.3345451058166744,0.3356607750254188,0.3408553448392211,0.33043705313448113,0.3106027324326064,0.26976729951404765,0.24281556111887515,0.25369899451279254,0.28587868272730876,0.31816037507962136,0.3445391753962532,0.37036189970637956,0.364598352785622,0.3592354380161642,0.370104654500945,0.3656875068934067,0.36206240175770255,0.37536615520143357,0.3623876140722011,0.3532253967326744,0.3554104043786319,0.34523093445759834,0.3513924249930138,0.35522399157881157,0.37648773818347214,0.3935948580622268,0.3950010037226179,0.3950014644647113,0.3949947009446544,0.39161735357570127,0.36954871797440436,0.34259360430176455,0.334057656057154,0.311468943148403,0.28002056855136237,0.24765199784577785,0.21528286705501776,0.18234403955929812,0.14806577115150077,0.15592892745133957,0.19168639525682662,0.23729672333936325,0.27156251338643944,0.3113890264442891,0.35078514190907617,0.38535264417441883,0.4130602525574205,0.4298469476579174,0.4310046492782731,0.43100417863280116,0.42882064539535936,0.40605995203617873,0.3966466742794452,0.4218611660709879,0.46453128027479984,0.5078027079004124,0.5568306487087122,0.6074329449561464,0.66828286323998,0.7312603031808615,0.7814461423066836,0.8438744145245933,0.8903081972278484,0.9098599151297422,0.8790747503329599,0.8304950239520252,0.7667559742136674,0.7020201433287845,0.6372843124439007,0.5725484815590183,0.5078126506741363,0.4430768197892534,0.3783409889043705,0.31360537147062617,0.24958808644346586,0.19858666722003138,0.13739945985147006,0.07731536766815372,0.08890065972061034,0.1384963511642212,0.1942712806430431,0.24905782376856322,0.3047304342687651,0.35762156854383953,0.3913239074112105,0.402896976831161,0.4128819814998179,0.41069280477017767,0.38630507658781754,0.3539795184406693,0.3247843217755051,0.290602927161284,0.2604393042825328,0.2740096359247244,0.30624473272238495,0.33845298680937486,0.3638105172297985,0.3766312646492955,0.3757421583496985,0.36143696766358735,0.35899944582322707,0.358997894397874,0.358997894397874,0.358997894397874,0.3590317761743167,0.36648884723672825,0.37722121011127596,0.38819641080810685,0.3786106192064045,0.3865083456995255,0.3949168834908603,0.3949888893822284,0.38955834253535926,0.379684714998652,0.3912848753642204,0.37827444474456273,0.37625768536858617,0.36037765318218407,0.33422243195307955,0.30506915552342706,0.26867998809435845,0.23628461247272403,0.20401516951239618,0.1872377484024632,0.21629973865845997,0.2519201135280924,0.28950467559182247,0.33008391279319627,0.36953698172230576,0.40203784203568027
0,1,2,3,4,5,6,7,8,9,10,11,12,13,14,15,16,17,18,19,20,21,22,23,24,25,26,27,28,29,30,31,32,33,34,35,36,37,38,39,40,41,42,43,44,45,46,47,48,49,50,51,52,53,54,55,56,57,58,59,60,61,62,63,64,65,66,67,68,69,70,71,72,73,74,75,76,77,78,79,80,81,82,83,84,85,86,87,88,89,90,91,92,93,94,95,96,97,98,99,100,101,102,103,104,105,106,107,108,109,110,111,112,113,114,115,116,117,118,119,120,121,122,123,124,125,126,127,128,129,130,131,132,133,134,135,136,137,138,139,140,141,142,143,144,145,146,147,148,149,150,151,152,153,154,155,156,157,158,159,160,161,162,163,164,165,166,167,168,169,170,171,172,173,174,175,176,177,178,179,180,181,182,183,184,185,186,187,188,189,190,191,192,193,194,195,196,197,198,199,200,201,202,203,204,205,206,207,208,209,210,211,212,213,214,215,216,217,218,219,220,221,222,223,224,225,226,227,228,229,230,231,232,233,234,235,236,237,238,239,240,241,242,243,244,245,246,247,248,249,250,251,252,253,254
0.2575200981815926,0.23935876365312403,0.19050313372631766,0.13349434723229248,0.07827654619969682,0.06556974504238111,0.07204383707428974,0.1211198206446169,0.1797993189467033,0.21743578142254893,0.1767931539699794,0.12143568126348336,0.1153608680648599,0.14888819176859425,0.21250257191810773,0.28805769365805656,0.3598780255458638,0.4263901224810529,0.5039736797549867,0.5350974862497804,0.4642364961965839,0.3659685941459365,0.26742247152358756,0.17093235113420313,0.11961133476773345,0.11357955600566916,0.11355277757108961,0.12322045905518708,0.1588673925416253,0.13472970573046528,0.14423969218821275,0.22677544446315823,0.2873978787397071,0.3251258659754699,0.3236700266169654,0.3505142116786213,0.35515265114482686,0.4384472852834991,0.5256026007218697,0.551813176980894,0.5564361901915893,0.5945097581337326,0.6616565648235757,0.729758881674083,0.77350125146133,0.8203104937154095,0.8668889406863474,0.8772563946657299,0.8666933533548389,0.8817777542090055,0.894413954153054,0.9255497543194955,0.9101704049642323,0.936674156711145,0.9459109007017577,0.9289452063864174,0.883646903368748,0.8226106062543566,0.8042135644180086,0.770376832174168,0.7635414859783736,0.786044557162096,0.8203886304323418,0.8753419073594517,0.9053514758951846,0.9121700911523019,0.9297442764085706,0.9457389032694876,0.9737499027537875,0.93676676187077,0.8530141335049106,0.7714799500539686,0.6867039838175986,0.5988727638829792,0.5016567577261664,0.42205813970715633,0.3605246265123423,0.3885256903518228,0.4673929388542346,0.5653165260460677,0.6598855408430206,0.7397814975902746,0.8208927445553234,0.8458721614690439,0.8025463131587549,0.7382634673056461,0.6837456682048941,0.6385338555256657,0.5849129556250197,0.52863435283989,0.464417882766047,0.4214745126288295,0.3580783901025355,0.2932024399970521,0.23435737964679193,0.17013651638545868,0.10843070599868998,0.06703369135758264,0.07324173141600321,0.09316225974006498,0.13719264719685542,0.21061957051211921,0.28371633303153754,0.3391928574907719,0.39951329216249354,0.4613222946519109,0.5209369626259268,0.5840231440787993,0.6434724631877877,0.7194355621652222,0.7805994089725545,0.8384476251782638,0.8684783656487247,0.8985366027609856,0.9063006290998303,0.9063567525573268,0.9132579504695033,0.937010303307598,0.9356001638681426,0.8753123745028186,0.8366639526549196,0.8136448413644461,0.7867640546895154,0.7917132574319923,0.8237692461365564,0.8822380573105426,0.9406904890770549,0.9726335999266618,0.9786694950145924,0.9861744059180233,0.9790098303725006,0.9697529079402369,0.9170462402971045,0.839837098762295,0.7604053543987903,0.671640891653329,0.6137998518004535,0.5372041250811606,0.4397572458310113,0.34787498999908495,0.2776265361412693,0.28843639655800946,0.3625775462987506,0.4578266109323872,0.5538864946536788,0.6334739001938896,0.7294431555887542,0.8268376111966895,0.9074438896282344,0.9835309513709958,0.9694316445362348,0.9020200577502036,0.8279056678755023,0.7437110356664114,0.689700138339854,0.6461545942704983,0.5968306289389447,0.5406773552189672,0.4974828197687411,0.4362223083824892,0.3601656960001747,0.3055822770510144,0.2500108033361266,0.1903228973632114,0.14200982363926284,0.10470197333871134,0.09307972047500668,0.12333778913181037,0.17883316611664934,0.2413017516372924,0.3017300514480512,0.3660174253857815,0.4348244576365312,0.49451780536688217,0.5541549878612533,0.6250748415120593,0.6879460080126192,0.7532095053262653,0.8030222022122202,0.8519783039997759,0.8922856538689294,0.9267860452618346,0.9309388104233505,0.9481351234434379,0.9718672546025986,0.9731718124214228,0.9630522192036248,0.9709842160771722,0.9348141545987398,0.9006537883953363,0.856566957001855,0.834704636316395,0.835000516535596,0.8655975167431111,0.9260154471821864,0.9933195467963727,0.9999999999999996,0.9670696001195869,0.9304153102558907,0.9177179753614628,0.9165311619546963,0.894393301595128,0.8397953363241357,0.7607135542695196,0.6724624035002278,0.5876506620860606,0.48954063527296166,0.41283318922267,0.42253514612772625,0.49969973304664794,0.5931318916774222,0.6734122245474832,0.7709896593685879,0.8687369585219469,0.9489974354635531,0.9859255463987107,0.932318566142651,0.8666547035311605,0.7940321333454521,0.7118664933855641,0.6457383652794775,0.5892247918103406,0.5343031140119878,0.49063831475738473,0.446658576933181,0.38703107719933927,0.3102173646640525,0.25570688528531793,0.1963054120518435,0.13437479246409278,0.07343319689943106,0.022433367985825736,0.0,0.005242184331611721,0.009613486376733427,0.06112504585557543,0.11746430790002416,0.17633335290370056,0.24304470982142412,0.31230612960269966,0.37377285809677296,0.44632475641274905,0.5127129914556829,0.5784479255401314,0.6438967298709768,0.6996434487073433,0.7547612728403186,0.7662485352993698,0.7895855643183656,0.8248099973733036,0.8343213395920404,0.8459201298742527,0.881513935431419,0.900619074750582,0.8834735602165655
0,1,2,3,4,5,6,7,8,9,10,11,12,13,14,15,16,17,18,19,20,21,22,23,24,25,26,27,28,29,30,31,32,33,34,35,36,37,38,39,40,41,42,43,44,45,46,47,48,49,50,51,52,53,54,55,56,57,58,59,60,61,62,63,64,65,66,67,68,69,70,71,72,73,74,75,76,77,78,79,80,81,82,83,84,85,86,87,88,89,90,91,92,93,94,95,96,97,98,99,100,101,102,103,104,105,106,107,108,109,110,111,112,113,114,115,116,117,118,119,120,121,122,123,124,125,126,127,128,129,130,131,132,133,134,135,136,137,138,139,140,141,142,143,144,145,146,147,148,149,150,151,152,153,154,155,156,157,158,159,160,161,162,163,164,165,166,167,168,169,170,171,172,173,174,175,176,177,178,179,180,181,182,183,184,185,186,187,188,189,190,191,192,193,194,195,196,197,198,199,200,201,202,203,204,205,206,207,208,209,210,211,212,213,214,215,216,217,218,219,220,221,222,223,224,225,226,227,228,229,230,231,232,233,234,235,236,237,238,239,240,241,242,243,244,245,246,247,248,249,250,251,252,253,254
0.6023521809093904,0.5329610445718691,0.4731182015701725,0.43726556193067445,0.3980441719512786,0.417346545823408,0.4919675289371135,0.5734635100364693,0.6304628721241707,0.6697101416360827,0.6958701822344837,0.7295287341191781,0.7842683405981603,0.8326615706876286,0.889474679159421,0.9088066406375344,0.9119855255236873,0.9407374297105937,0.9680627405123774,0.9660575038758017,0.94069061257174,0.9084883225980871,0.8366444719593522,0.7711092144290319,0.7001094790625269,0.6329301227930015,0.5685150665196739,0.49950328530186905,0.4302531252541941,0.3642636379123374,0.29179528401145305,0.2305264790383026,0.17378384167488115,0.14850633454772044,0.1586001566552646,0.190771858282063,0.23712478974649898,0.27517132341974726,0.3184574825521196,0.3661931025156919,0.39433986359532636,0.4201279988812905,0.42154337228056526,0.4023714006712664,0.4035516504750616,0.375350130039827,0.3286143591269699,0.2801475480410778,0.21918434803583065,0.15915510714136705,0.1254550821371394,0.1182375734393819,0.1423693642431516,0.20381818757708636,0.2668367995507772,0.32158453275171706,0.3858630407138941,0.4497921448280815,0.4965237146992969,0.54574857570225,0.5780224981116788,0.6033381665880944,0.6044885774235595,0.5890690109893448,0.5667404221390662,0.5165210304963983,0.4522230063527948,0.40075047061151015,0.37777243885301015,0.37393031637896623,0.43406444534940025,0.5169203329927452,0.5870731356224903,0.6405358015740665,0.6505026434448391,0.6357616852529109,0.6597782514262596,0.7110994587175226,0.7708260449640809,0.8118705736440024,0.8200484102735306,0.8445839892496743,0.8591779430571957,0.8791876165017785,0.8988489209083736,0.875508543202316,0.8209728914780205,0.7658240980589843,0.7075904714024963,0.6380666807868733,0.5626425199774312,0.48859453927539587,0.4240058611319073,0.35042724584126983,0.28483256658235057,0.22096763746062997,0.16697344454977525,0.12056482650616562,0.12687028425771718,0.17063469133728315,0.2110190272410133,0.26559146047036464,0.3152787077658106,0.363167818292073,0.3933440623161255,0.4188263629302984,0.42208919230864517,0.4352147096607153,0.4516022953897707,0.4252232225403638,0.37739425955107997,0.32781229219567987,0.2664760124921779,0.21757587057871408,0.17763233956166857,0.15083678164450998,0.17618399572150878,0.23258311921198782,0.3023903936246466,0.3684933291469683,0.4328240830359258,0.4968289138831832,0.549164339245011,0.5973546789716506,0.6369007530473096,0.6774100027743799,0.7021192523656872,0.7119088725854867,0.696146544589495,0.6869661723141283,0.6186740633242254,0.5544819788255406,0.5160602370404508,0.5133529092220783,0.5258738813259631,0.6028428680598834,0.6738713489530781,0.749249529546443,0.7812429847800804,0.7894941495538923,0.8236346522227569,0.871803642334525,0.9192109150139336,0.9445213488283875,0.9685037780635284,0.9778480750663956,0.9994764727923595,1.0,0.9791268791814227,0.9387186462520241,0.8855059272158048,0.8350355443263853,0.7762951989637372,0.7061705017645705,0.6381322916949257,0.5704436255625849,0.4814341259467456,0.4102342776919654,0.3457537379451736,0.297353466598703,0.24912122913507062,0.21350320208871842,0.2357584372828203,0.2740891831368373,0.32222498523843424,0.37039604307848695,0.415065953171875,0.44585102132736054,0.4598759445907774,0.49990248547179483,0.511787387800064,0.48735865464321204,0.4956663807486823,0.5124608913873354,0.4786204249330064,0.43723510893130335,0.39065357941246415,0.3364751663357932,0.3009746949147871,0.30182996012279784,0.3329565847919209,0.3814373644659499,0.4421945850144331,0.5065230990400647,0.5706986632290407,0.6332436610645162,0.6663796365913672,0.694223820929257,0.7332159600477208,0.7564663348658263,0.7567488337981008,0.7522601698505325,0.6875391229583832,0.5973769753754503,0.5313146637043813,0.47912185687126563,0.4635727914043519,0.4553985806381613,0.47720581277493146,0.543013708955705,0.6212922627308712,0.6448465483375863,0.6381631322412025,0.6366994055236415,0.6683798652928736,0.7164375439742416,0.7466631827303241,0.7307483669718753,0.7551268109552458,0.7567508740214324,0.7589516227119057,0.7818558712176582,0.7545760821748031,0.7081769897623698,0.6655188441290818,0.5984370284827287,0.5317035710397766,0.46804790557526577,0.39756122945516115,0.3246774325845303,0.24999657938311692,0.17363087849732128,0.0922409621278728,0.041844328186679824,0.0010957626603103066,0.0,0.030402297163308667,0.0730505277176805,0.1212591665189322,0.16943926327452985,0.2096364140234952,0.24169308211983065,0.2683562955236489,0.2767038723663804,0.30749678709542483,0.329900817539726,0.31400944560393196,0.32264641410781536,0.2994044393609183,0.24425677225687625,0.19167948864268958,0.1340744710627062,0.09870864933891976,0.06051477348604983,0.05846018712033274,0.09985486332260773,0.16405085633341532,0.22842540817503032,0.3003255456644416,0.35772670773879245,0.4059070630938306,0.4538524925123717,0.49041175430281747,0.5126847938189103,0.5133179167100002
0,1,2,3,4,5,6,7,8,9,10,11,12,13,14,15,16,17,18,19,20,21,22,23,24,25,26,27,28,29,30,31,32,33,34,35,36,37,38,39,40,41,42,43,44,45,46,47,48,49,50,51,52,53,54,55,56,57,58,59,60,61,62,63,64,65,66,67,68,69,70,71,72,73,74,75,76,77,78,79,80,81,82,83,84,85,86,87,88,89,90,91,92,93,94,95,96,97,98,99,100,101,102,103,104,105,106,107,108,109,110,111,112,113,114,115,116,117,118,119,120,121,122,123,124,125,126,127,128,129,130,131,132,133,134,135,136,137,138,139,140,141,142,143,144,145,146,147,148,149,150,151,152,153,154,155,156,157,158,159,160,161,162,163,164,165,166,167,168,169,170,171,172,173,174,175,176,177,178,179,180,181,182,183,184,185,186,187,188,189,190,191,192,193,194,195,196,197,198,199,200,201,202,203,204,205,206,207,208,209,210,211,212,213,214,215,216,217,218,219,220,221,222,223,224,225,226,227,228,229,230,231,232,233,234,235,236,237,238,239,240,241,242,243,244,245,246,247,248,249,250,251,252,253,254
0.3336021158984721,0.30317916654722055,0.27323319436792737,0.29524469267347886,0.24496086546316853,0.18357808192803837,0.13244567079806924,0.09124600766134172,0.051383604325817345,0.05478262943762857,0.08605417790424585,0.06066928835872343,0.07681649198222296,0.09079330688403431,0.1381917427013697,0.1984123207467654,0.22491347688759955,0.2595302709134497,0.27586968137078305,0.30507789141004604,0.3139424213592843,0.3482726265777707,0.3873124061564148,0.46696884406812256,0.5490239325004547,0.6298825547899201,0.7107181687683006,0.79575028876123,0.8826263469322191,0.9159452964534545,0.9163852334978095,0.9029833301329289,0.8125928710193513,0.7435781805082327,0.6472762970606576,0.5256741386306283,0.43167372238595103,0.39205797762464467,0.35694919080787724,0.31609801315206276,0.27353027732345137,0.2213756195314085,0.17370332829704438,0.11384526218755386,0.0968826515367276,0.15331601754357926,0.21491034803824594,0.29058283666334717,0.3174239499548781,0.34963532160029054,0.3825415019802554,0.35481922554955414,0.3477098235185485,0.3147302937432892,0.314527563449146,0.34492126623614894,0.30937022608765474,0.28811174719614563,0.3451454312079232,0.3347272848999765,0.30569841119653507,0.28205169220135673,0.2926373453254669,0.31638817718958556,0.3481877480768567,0.35605082488794704,0.39044474862334333,0.39263564932798456,0.3761862544121328,0.34937671874509046,0.33770068517639196,0.3061109356368119,0.28556563842551164,0.2417488911152308,0.17757665978487136,0.1476758437834622,0.10615587533504645,0.05202641310323042,0.043697727631257344,0.06754635128341846,0.08792800211384755,0.12422885692039021,0.17425506954486547,0.2140701173342512,0.21818635572715106,0.22445706456839876,0.2592872184807078,0.27455202797075273,0.28947992455809857,0.27012642929955266,0.32396634054027285,0.3972108060741464,0.4780358643436289,0.5602004387369357,0.654801957453726,0.7502871161824771,0.8167563817996832,0.8238868568809163,0.7875898885816204,0.7702142871995852,0.6922781606737685,0.5904060715143373,0.501460709604447,0.3920526104774398,0.30926610009623445,0.2819162471203338,0.35126817248313813,0.3916927683612643,0.357993117712776,0.30703480674940753,0.258143049489858,0.1971832103936002,0.11895971508136594,0.04657834370131919,0.0660852071211826,0.1386988847868711,0.20871404917606373,0.2971172662876711,0.3727896277954823,0.3810760209918218,0.3409082443083653,0.3065448606348937,0.30546553449638036,0.3054653789165007,0.302996190474369,0.26833300417401684,0.2618281352684573,0.26181194522197426,0.24831612681690896,0.21878467320092287,0.21818952132071523,0.21849107817195002,0.24547997330363902,0.2698293104384488,0.3036200069163302,0.30546534376143253,0.3045092771633806,0.27255797792577674,0.2615367914131346,0.23381669281802342,0.17340814060412413,0.11346911180802799,0.072127602587293,0.04114799751010967,0.005417270851426181,0.0,7.618446963952863e-06,0.009360160860472533,0.04228360445024926,0.04949399197336479,0.10005088979935106,0.14246548580043328,0.18301159475806106,0.21774497257321102,0.25257068921460846,0.2928704978858425,0.2879358578391411,0.2711148525396947,0.3259964219672238,0.3734730444787582,0.48309279934994453,0.5937527183225768,0.6591340133999903,0.7610893361075748,0.8506619845029668,0.9474109444923142,1.0000000000000009,0.9863189748641128,0.909836468122668,0.8733718638484511,0.8447848387775068,0.7319193509975994,0.609917670445423,0.4992445675845163,0.4106725555495023,0.3505835306565146,0.3764084113289279,0.3593834367335198,0.3100840951690609,0.2807483578598635,0.22038879739831785,0.15640938322758924,0.07749318751533707,0.04507064879874356,0.0810854580806879,0.1705318416971,0.22875652900980992,0.2976115487596269,0.30316170055235503,0.268774879778479,0.26183791578756654,0.2714113354064098,0.29131558345474584,0.2624810320478357,0.25392294014660965,0.21938731562881575,0.21818957517528936,0.21818952132071523,0.21818952132071523,0.21866620503133838,0.24722137214093198,0.27103608131703893,0.30505789030382147,0.3399528484290988,0.3803692668538332,0.39272741363974184,0.3927415476720446,0.3924522158925301,0.3585738373002414,0.3051746550302834,0.27056986777518865,0.22715632776722217,0.16690383505174466,0.12971397593380551,0.09379781230585671,0.05320681714512521,0.05239650033654275,0.09266349739305024,0.12929816266560135,0.17572073586245907,0.21946803805488457,0.256033101832859,0.28290158667528686,0.30584471005477365,0.33464175092181314,0.31535472459658465,0.3066030313729513,0.34056496378419787,0.3711400560907867,0.44962937370600287,0.530846237215636,0.6357668247000374,0.7174930181843395,0.7959956498282628,0.9020199008783587,0.9559242002447847,0.9437951345474369,0.8847989705698254,0.9122100928852745,0.8746379983719006,0.7821596088999518,0.6967586086796,0.5887378617191077,0.4991233465134899,0.4153197084003386,0.43220190393369595,0.3964142891263869,0.3822707016099134,0.32817850689201666,0.2865633027076955,0.22596039956953984,0.13735804871568558,0.09383110389111948,0.14404884927237838,0.20232660526284274
0,1,2,3,4,5,6,7,8,9,10,11,12,13,14,15,16,17,18,19,20,21,22,23,24,25,26,27,28,29,30,31,32,33,34,35,36,37,38,39,40,41,42,43,44,45,46,47,48,49,50,51,52,53,54,55,56,57,58,59,60,61,62,63,64,65,66,67,68,69,70,71,72,73,74,75,76,77,78,79,80,81,82,83,84,85,86,87,88,89,90,91,92,93,94,95,96,97,98,99,100,101,102,103,104,105,106,107,108,109,110,111,112,113,114,115,116,117,118,119,120,121,122,123,124,125,126,127,128,129,130,131,132,133,134,135,136,137,138,139,140,141,142,143,144,145,146,147,148,149,150,151,152,153,154,155,156,157,158,159,160,161,162,163,164,165,166,167,168,169,170,171,172,173,174,175,176,177,178,179,180,181,182,183,184,185,186,187,188,189,190,191,192,193,194,195,196,197,198,199,200,201,202,203,204,205,206,207,208,209,210,211,212,213,214,215,216,217,218,219,220,221,222,223,224,225,226,227,228,229,230,231,232,233,234,235,236,237,238,239,240,241,242,243,244,245,246,247,248,249,250,251,252,253,254
0.3336021158984721,0.30317916654722055,0.27323319436792737,0.29524469267347886,0.24496086546316853,0.18357808192803837,0.13244567079806924,0.09124600766134172,0.051383604325817345,0.05478262943762857,0.08605417790424585,0.06066928835872343,0.07681649198222296,0.09079330688403431,0.1381917427013697,0.1984123207467654,0.22491347688759955,0.2595302709134497,0.27586968137078305,0.30507789141004604,0.3139424213592843,0.3482726265777707,0.3873124061564148,0.46696884406812256,0.5490239325004547,0.6298825547899201,0.7107181687683006,0.79575028876123,0.8826263469322191,0.9159452964534545,0.9163852334978095,0.9029833301329289,0.8125928710193513,0.7435781805082327,0.6472762970606576,0.5256741386306283,0.43167372238595103,0.39205797762464467,0.35694919080787724,0.31609801315206276,0.27353027732345137,0.2213756195314085,0.17370332829704438,0.11384526218755386,0.0968826515367276,0.15331601754357926,0.21491034803824594,0.29058283666334717,0.3174239499548781,0.34963532160029054,0.3825415019802554,0.35481922554955414,0.3477098235185485,0.3147302937432892,0.314527563449146,0.34492126623614894,0.30937022608765474,0.28811174719614563,0.3451454312079232,0.3347272848999765,0.30569841119653507,0.28205169220135673,0.2926373453254669,0.31638817718958556,0.3481877480768567,0.35605082488794704,0.39044474862334333,0.39263564932798456,0.3761862544121328,0.34937671874509046,0.33770068517639196,0.3061109356368119,0.28556563842551164,0.2417488911152308,0.17757665978487136,0.1476758437834622,0.10615587533504645,0.05202641310323042,0.043697727631257344,0.06754635128341846,0.08792800211384755,0.12422885692039021,0.17425506954486547,0.2140701173342512,0.21818635572715106,0.22445706456839876,0.2592872184807078,0.27455202797075273,0.28947992455809857,0.27012642929955266,0.32396634054027285,0.3972108060741464,0.4780358643436289,0.5602004387369357,0.654801957453726,0.7502871161824771,0.8167563817996832,0.8238868568809163,0.7875898885816204,0.7702142871995852,0.6922781606737685,0.5904060715143373,0.501460709604447,0.3920526104774398,0.30926610009623445,0.2819162471203338,0.35126817248313813,0.3916927683612643,0.357993117712776,0.30703480674940753,0.258143049489858,0.1971832103936002,0.11895971508136594,0.04657834370131919,0.0660852071211826,0.1386988847868711,0.20871404917606373,0.2971172662876711,0.3727896277954823,0.3810760209918218,0.3409082443083653,0.3065448606348937,0.30546553449638036,0.3054653789165007,0.302996190474369,0.26833300417401684,0.2618281352684573,0.26181194522197426,0.24831612681690896,0.21878467320092287,0.21818952132071523,0.21849107817195002,0.24547997330363902,0.2698293104384488,0.3036200069163302,0.30546534376143253,0.3045092771633806,0.27255797792577674,0.2615367914131346,0.23381669281802342,0.17340814060412413,0.11346911180802799,0.072127602587293,0.04114799751010967,0.005417270851426181,0.0,7.618446963952863e-06,0.009360160860472533,0.04228360445024926,0.04949399197336479,0.10005088979935106,0.14246548580043328,0.18301159475806106,0.21774497257321102,0.25257068921460846,0.2928704978858425,0.2879358578391411,0.2711148525396947,0.3259964219672238,0.3734730444787582,0.48309279934994453,0.5937527183225768,0.6591340133999903,0.7610893361075748,0.8506619845029668,0.9474109444923142,1.0000000000000009,0.9863189748641128,0.909836468122668,0.8733718638484511,0.8447848387775068,0.7319193509975994,0.609917670445423,0.4992445675845163,0.4106725555495023,0.3505835306565146,0.3764084113289279,0.3593834367335198,0.3100840951690609,0.2807483578598635,0.22038879739831785,0.15640938322758924,0.07749318751533707,0.04507064879874356,0.0810854580806879,0.1705318416971,0.22875652900980992,0.2976115487596269,0.30316170055235503,0.268774879778479,0.26183791578756654,0.2714113354064098,0.29131558345474584,0.2624810320478357,0.25392294014660965,0.21938731562881575,0.21818957517528936,0.21818952132071523,0.21818952132071523,0.21866620503133838,0.24722137214093198,0.27103608131703893,0.30505789030382147,0.3399528484290988,0.3803692668538332,0.39272741363974184,0.3927415476720446,0.3924522158925301,0.3585738373002414,0.3051746550302834,0.27056986777518865,0.22715632776722217,0.16690383505174466,0.12971397593380551,0.09379781230585671,0.05320681714512521,0.05239650033654275,0.09266349739305024,0.12929816266560135,0.17572073586245907,0.21946803805488457,0.256033101832859,0.28290158667528686,0.30584471005477365,0.33464175092181314,0.31535472459658465,0.3066030313729513,0.34056496378419787,0.3711400560907867,0.44962937370600287,0.530846237215636,0.6357668247000374,0.7174930181843395,0.7959956498282628,0.9020199008783587,0.9559242002447847,0.9437951345474369,0.8847989705698254,0.9122100928852745,0.8746379983719006,0.7821596088999518,0.6967586086796,0.5887378617191077,0.4991233465134899,0.4153197084003386,0.43220190393369595,0.3964142891263869,0.3822707016099134,0.32817850689201666,0.2865633027076955,0.22596039956953984,0.13735804871568558,0.09383110389111948,0.14404884927237838,0.20232660526284274
0,1,2,3,4,5,6,7,8,9,10,11,12,13,14,15,16,17,18,19,20,21,22,23,24,25,26,27,28,29,30,31,32,33,34,35,36,37,38,39,40,41,42,43,44,45,46,47,48,49,50,51,52,53,54,55,56,57,58,59,60,61,62,63,64,65,66,67,68,69,70,71,72,73,74,75,76,77,78,79,80,81,82,83,84,85,86,87,88,89,90,91,92,93,94,95,96,97,98,99,100,101,102,103,104,105,106,107,108,109,110,111,112,113,114,115,116,117,118,119,120,121,122,123,124,125,126,127,128,129,130,131,132,133,134,135,136,137,138,139,140,141,142,143,144,145,146,147,148,149,150,151,152,153,154,155,156,157,158,159,160,161,162,163,164,165,166,167,168,169,170,171,172,173,174,175,176,177,178,179,180,181,182,183,184,185,186,187,188,189,190,191,192,193,194,195,196,197,198,199,200,201,202,203,204,205,206,207,208,209,210,211,212,213,214,215,216,217,218,219,220,221,222,223,224,225,226,227,228,229,230,231,232,233,234,235,236,237,238,239,240,241,242,243,244,245,246,247,248,249,250,251,252,253,254
0.1000062576500178,0.10344944045405624,0.13714289366788535,0.19065793584286395,0.2504682272930694,0.2786628435009342,0.26723499611575807,0.2577725025921853,0.23904079242279286,0.19729959617455517,0.14375705152827134,0.10475417141819321,0.056348872302888875,0.020792245451291436,0.0015567713307294007,0.0005018663902012221,0.018248505902130674,0.07197991441341633,0.1169550322855164,0.16045866283069055,0.20226858975348838,0.22292196224913985,0.25184910538963434,0.28090975227978143,0.26931810351754715,0.23826524788126457,0.2011460629552171,0.14368815102508625,0.08304377121505668,0.02558985283979265,0.0026862775919469506,9.64949363257972e-06,0.0,0.0020316955205199605,0.0293739548618559,0.023858122456183573,0.00890711706102687,0.037145153145119014,0.09039775217007362,0.12511933368516193,0.14785723853635035,0.14225452587541465,0.17704191034959926,0.18396889509544945,0.20101782540514845,0.21744379980806894,0.2409840959882943,0.24912724313815282,0.23891540692487023,0.24502844422306236,0.21315060808880215,0.17162203565449863,0.18576381138509257,0.22478168615134209,0.2815007106077192,0.329013815423322,0.3883973922062629,0.43881918994387803,0.49327082119964816,0.5537455195583583,0.6045101988047179,0.6585205519302728,0.712552733704316,0.7505344214927523,0.716703917319498,0.6688808149756356,0.6115378316127247,0.5509813989559817,0.49905794657221136,0.446187975358491,0.39096138252146995,0.3412906585649118,0.2817752928806563,0.23450101567273052,0.1981584652930901,0.18134287376856761,0.16833244984331586,0.18689685388332,0.21513777092965558,0.22978617616079067,0.24163862273210412,0.23440817994453367,0.2496553459425055,0.2654680695799807,0.26953042265239313,0.2884780315587019,0.3163387621265614,0.3394260071013768,0.35182197061471454,0.3745156868637771,0.4111764820300019,0.4412227653231984,0.43906825098486424,0.4161317451286797,0.3926050614280272,0.3675719458519269,0.3430729744985461,0.3334316356193603,0.3329908091335607,0.32157171342927526,0.32937824078389255,0.34281592910642766,0.33685871070133233,0.34850746241170105,0.3500157342885193,0.35455741956428266,0.36651553919039026,0.37688716195689276,0.37655216604504993,0.36693659083337105,0.37653488069525265,0.38723965517675873,0.40599051659038654,0.41290496375039076,0.3947098049183362,0.39035574659255845,0.40968999100182524,0.4006900379354592,0.3986329764376624,0.38217085321425426,0.3574645604775113,0.3522570602433306,0.3736313425504916,0.37840930482738555,0.3690031054508336,0.3831311922756342,0.3984942248402148,0.4132856486330825,0.4161221460830147,0.4022398038937012,0.37730525549956884,0.3536958336476759,0.37237480578880255,0.42148388452307506,0.4699755665056551,0.5297229952552729,0.5784361130668851,0.6348863897721961,0.6954572995744766,0.7485494888895361,0.8002684796469581,0.8557227309644952,0.8736629050456646,0.8245037693785289,0.7640603775258068,0.7131147787805223,0.6592028221872415,0.5986037458501863,0.5379520217992089,0.4808900159950795,0.43278647020608174,0.3817396647557407,0.33213015632185616,0.30288538056132186,0.31056595673460485,0.32693511301765454,0.3491478786666362,0.36939271471660184,0.3831279406805992,0.3899360850651883,0.392441631509854,0.3995658853594408,0.41866257505111193,0.43284333103069406,0.4532233636897387,0.47726285069467034,0.4942246041796712,0.5301124791137486,0.5656740647995915,0.6003668058160514,0.6261572999339879,0.6234543719173304,0.6240021499686224,0.5866588033302165,0.5463690500519394,0.5167879190574372,0.4903627184484667,0.45591623396107606,0.4354370744643119,0.416342686952309,0.4046849807324264,0.4064201284062352,0.407558571002558,0.4252708744165403,0.4120023306533285,0.4004020336792702,0.4002735510898403,0.41340080242563015,0.43224523882472177,0.42711614621778127,0.40461645315848127,0.4174358381095109,0.4330129415105102,0.43890210439338073,0.44613967769938334,0.4205455874468824,0.4264013936229918,0.4333479030052132,0.4396922325356565,0.44613878432890797,0.4235243566345379,0.4227307639062592,0.42974762233273633,0.4081259929779897,0.4140692255869025,0.4181373935497983,0.4265693407478377,0.4196965839308726,0.45268440112349584,0.46922605414422724,0.4878807994555099,0.5096052933377346,0.5010885033870145,0.4964982113421925,0.46813888974087803,0.4527315892666399,0.480523714997374,0.5342601417716635,0.5819602376702759,0.6418021983425821,0.6997802358721992,0.7473685295208004,0.8070634388406832,0.8614821622981297,0.911946561050585,0.9720483006356146,1.0,0.961046586624207,0.9023389696369564,0.8457339797142853,0.7971488989715496,0.7370810232857719,0.6843974425934229,0.6324196532103739,0.5810881823218432,0.5287685508540605,0.4819271083434433,0.4377345322077586,0.4056251602923058,0.41044234477844777,0.4322133174516738,0.42200575359724324,0.419652185133641,0.44120566563241104,0.43946116711887884,0.44950951555746776,0.44223598206844317,0.4334499558540412,0.4358136052674908,0.4494527582664749,0.4696784107008236,0.4995581652275991,0.5223962740730794,0.547589921979545,0.5375117687517963
0,1,2,3,4,5,6,7,8,9,10,11,12,13,14,15,16,17,18,19,20,21,22,23,24,25,26,27,28,29,30,31,32,33,34,35,36,37,38,39,40,41,42,43,44,45,46,47,48,49,50,51,52,53,54,55,56,57,58,59,60,61,62,63,64,65,66,67,68,69,70,71,72,73,74,75,76,77,78,79,80,81,82,83,84,85,86,87,88,89,90,91,92,93,94,95,96,97,98,99,100,101,102,103,104,105,106,107,108,109,110,111,112,113,114,115,116,117,118,119,120,121,122,123,124,125,126,127,128,129,130,131,132,133,134,135,136,137,138,139,140,141,142,143,144,145,146,147,148,149,150,151,152,153,154,155,156,157,158,159,160,161,162,163,164,165,166,167,168,169,170,171,172,173,174,175,176,177,178,179,180,181,182,183,184,185,186,187,188,189,190,191,192,193,194,195,196,197,198,199,200,201,202,203,204,205,206,207,208,209,210,211,212,213,214,215,216,217,218,219,220,221,222,223,224,225,226,227,228,229,230,231,232,233,234,235,236,237,238,239,240,241,242,243,244,245,246,247,248,249,250,251,252,253,254
0.1000062576500178,0.10344944045405624,0.13714289366788535,0.19065793584286395,0.2504682272930694,0.2786628435009342,0.26723499611575807,0.2577725025921853,0.23904079242279286,0.19729959617455517,0.14375705152827134,0.10475417141819321,0.056348872302888875,0.020792245451291436,0.0015567713307294007,0.0005018663902012221,0.018248505902130674,0.07197991441341633,0.1169550322855164,0.16045866283069055,0.20226858975348838,0.22292196224913985,0.25184910538963434,0.28090975227978143,0.26931810351754715,0.23826524788126457,0.2011460629552171,0.14368815102508625,0.08304377121505668,0.02558985283979265,0.0026862775919469506,9.64949363257972e-06,0.0,0.0020316955205199605,0.0293739548618559,0.023858122456183573,0.00890711706102687,0.037145153145119014,0.09039775217007362,0.12511933368516193,0.14785723853635035,0.14225452587541465,0.17704191034959926,0.18396889509544945,0.20101782540514845,0.21744379980806894,0.2409840959882943,0.24912724313815282,0.23891540692487023,0.24502844422306236,0.21315060808880215,0.17162203565449863,0.18576381138509257,0.22478168615134209,0.2815007106077192,0.329013815423322,0.3883973922062629,0.43881918994387803,0.49327082119964816,0.5537455195583583,0.6045101988047179,0.6585205519302728,0.712552733704316,0.7505344214927523,0.716703917319498,0.6688808149756356,0.6115378316127247,0.5509813989559817,0.49905794657221136,0.446187975358491,0.39096138252146995,0.3412906585649118,0.2817752928806563,0.23450101567273052,0.1981584652930901,0.18134287376856761,0.16833244984331586,0.18689685388332,0.21513777092965558,0.22978617616079067,0.24163862273210412,0.23440817994453367,0.2496553459425055,0.2654680695799807,0.26953042265239313,0.2884780315587019,0.3163387621265614,0.3394260071013768,0.35182197061471454,0.3745156868637771,0.4111764820300019,0.4412227653231984,0.43906825098486424,0.4161317451286797,0.3926050614280272,0.3675719458519269,0.3430729744985461,0.3334316356193603,0.3329908091335607,0.32157171342927526,0.32937824078389255,0.34281592910642766,0.33685871070133233,0.34850746241170105,0.3500157342885193,0.35455741956428266,0.36651553919039026,0.37688716195689276,0.37655216604504993,0.36693659083337105,0.37653488069525265,0.38723965517675873,0.40599051659038654,0.41290496375039076,0.3947098049183362,0.39035574659255845,0.40968999100182524,0.4006900379354592,0.3986329764376624,0.38217085321425426,0.3574645604775113,0.3522570602433306,0.3736313425504916,0.37840930482738555,0.3690031054508336,0.3831311922756342,0.3984942248402148,0.4132856486330825,0.4161221460830147,0.4022398038937012,0.37730525549956884,0.3536958336476759,0.37237480578880255,0.42148388452307506,0.4699755665056551,0.5297229952552729,0.5784361130668851,0.6348863897721961,0.6954572995744766,0.7485494888895361,0.8002684796469581,0.8557227309644952,0.8736629050456646,0.8245037693785289,0.7640603775258068,0.7131147787805223,0.6592028221872415,0.5986037458501863,0.5379520217992089,0.4808900159950795,0.43278647020608174,0.3817396647557407,0.33213015632185616,0.30288538056132186,0.31056595673460485,0.32693511301765454,0.3491478786666362,0.36939271471660184,0.3831279406805992,0.3899360850651883,0.392441631509854,0.3995658853594408,0.41866257505111193,0.43284333103069406,0.4532233636897387,0.47726285069467034,0.4942246041796712,0.5301124791137486,0.5656740647995915,0.6003668058160514,0.6261572999339879,0.6234543719173304,0.6240021499686224,0.5866588033302165,0.5463690500519394,0.5167879190574372,0.4903627184484667,0.45591623396107606,0.4354370744643119,0.416342686952309,0.4046849807324264,0.4064201284062352,0.407558571002558,0.4252708744165403,0.4120023306533285,0.4004020336792702,0.4002735510898403,0.41340080242563015,0.43224523882472177,0.42711614621778127,0.40461645315848127,0.4174358381095109,0.4330129415105102,0.43890210439338073,0.44613967769938334,0.4205455874468824,0.4264013936229918,0.4333479030052132,0.4396922325356565,0.44613878432890797,0.4235243566345379,0.4227307639062592,0.42974762233273633,0.4081259929779897,0.4140692255869025,0.4181373935497983,0.4265693407478377,0.4196965839308726,0.45268440112349584,0.46922605414422724,0.4878807994555099,0.5096052933377346,0.5010885033870145,0.4964982113421925,0.46813888974087803,0.4527315892666399,0.480523714997374,0.5342601417716635,0.5819602376702759,0.6418021983425821,0.6997802358721992,0.7473685295208004,0.8070634388406832,0.8614821622981297,0.911946561050585,0.9720483006356146,1.0,0.961046586624207,0.9023389696369564,0.8457339797142853,0.7971488989715496,0.7370810232857719,0.6843974425934229,0.6324196532103739,0.5810881823218432,0.5287685508540605,0.4819271083434433,0.4377345322077586,0.4056251602923058,0.41044234477844777,0.4322133174516738,0.42200575359724324,0.419652185133641,0.44120566563241104,0.43946116711887884,0.44950951555746776,0.44223598206844317,0.4334499558540412,0.4358136052674908,0.4494527582664749,0.4696784107008236,0.4995581652275991,0.5223962740730794,0.547589921979545,0.5375117687517963
0,1,2,3,4,5,6,7,8,9,10,11,12,13,14,15,16,17,18,19,20,21,22,23,24,25,26,27,28,29,30,31,32,33,34,35,36,37,38,39,40,41,42,43,44,45,46,47,48,49,50,51,52,53,54,55,56,57,58,59,60,61,62,63,64,65,66,67,68,69,70,71,72,73,74,75,76,77,78,79,80,81,82,83,84,85,86,87,88,89,90,91,92,93,94,95,96,97,98,99,100,101,102,103,104,105,106,107,108,109,110,111,112,113,114,115,116,117,118,119,120,121,122,123,124,125,126,127,128,129,130,131,132,133,134,135,136,137,138,139,140,141,142,143,144,145,146,147,148,149,150,151,152,153,154,155,156,157,158,159,160,161,162,163,164,165,166,167,168,169,170,171,172,173,174,175,176,177,178,179,180,181,182,183,184,185,186,187,188,189,190,191,192,193,194,195,196,197,198,199,200,201,202,203,204,205,206,207,208,209,210,211,212,213,214,215,216,217,218,219,220,221,222,223,224,225,226,227,228,229,230,231,232,233,234,235,236,237,238,239,240,241,242,243,244,245,246,247,248,249,250,251,252,253,254
0.340852627965341,0.3491694709277562,0.4061283880789879,0.4940232411890282,0.5524964821521685,0.5934903671190379,0.6450842304845805,0.6969815669314698,0.7595912610343873,0.8138153143062423,0.8369116083136712,0.8280493698812394,0.8413066468026162,0.8002237443470177,0.7239930869391129,0.6317148955763243,0.5344629214577674,0.43719870521372295,0.3402004236248928,0.25789511885344885,0.17352369870343454,0.10621061406433219,0.09771875271502894,0.150143418378494,0.1854973084058753,0.18995094999544504,0.22938308610778435,0.22492705436310034,0.2026158285233226,0.25299228880927194,0.348406576274896,0.4120903672232288,0.4029590028360923,0.4391352572189082,0.43148284732543907,0.47992771515927934,0.549863462780122,0.605010508915317,0.6493681555134483,0.6930287428901982,0.7680067280222165,0.8391346675847906,0.8495748479251519,0.8425093643981807,0.8333294171584322,0.8490867303384295,0.8395723775815265,0.8248527970216895,0.8414685346871682,0.8665383112339446,0.8988674049480601,0.9373704100802618,0.9656166471042811,0.9959289464466554,0.9711632427099026,0.9453580000785129,0.9146397533041002,0.8789484903121076,0.8508568629352995,0.8495874309082838,0.8424754561181516,0.8248457443438193,0.8183268284659899,0.7717151741528676,0.714377439749466,0.6560552319171338,0.6099159892599539,0.6142709401795146,0.6712980981891201,0.72167292221783,0.7774871399493675,0.8302545094574736,0.8581158495736076,0.8746233976713578,0.8731005461648724,0.8232484264876367,0.7274948094211018,0.6308657474878547,0.5516680177904032,0.4611234718735391,0.3683519110949076,0.290762199635227,0.19765743295817906,0.12147916132237224,0.06586164276000206,0.10465562096134207,0.19709359106224245,0.2739728055804136,0.3683643784720112,0.46192880477812537,0.5392622681041028,0.6321582805183601,0.7090661976231001,0.7929094278630924,0.8457583858506661,0.8702623544040389,0.8732222100374099,0.8532999611184868,0.849602157317265,0.8496372235994132,0.858770550017308,0.8756443567463794,0.901615274805402,0.9275903815393445,0.9610591709349912,0.995693079472459,0.9725364238438239,0.9385949686670738,0.9025996272721013,0.8699023133587582,0.8491514988127697,0.8298541556158572,0.8241772239656617,0.8241603249063809,0.8224438797430107,0.7836122124535247,0.726616215270071,0.671310750455075,0.6348485780484872,0.628092601117241,0.6643758844414958,0.7268208998107264,0.7904052018809216,0.8315298603287706,0.8523166178650721,0.8727762338817477,0.8616689478570771,0.7991157373387496,0.7065356900718109,0.6093622440591182,0.5232562526950599,0.4399717883396117,0.34393865043632266,0.26610346661361284,0.1738340195616881,0.08252711096584031,0.01111273674354285,0.0,0.06831482460215055,0.16356862702817754,0.24116024369884892,0.3339529057561035,0.4286511675932023,0.5056347567972121,0.5956539131309015,0.6732395646790863,0.760710416052655,0.8239242422917474,0.8490288462510591,0.8495989820884748,0.8495983346827112,0.8471288821739238,0.8304238080301536,0.8609196720968182,0.877125998516024,0.8979709558375921,0.921407300793887,0.9624238657172173,1.0,0.9971142776071975,0.9570616071337517,0.9035851195095885,0.8763959871785136,0.8500963822345042,0.8250757910731021,0.8241608205764193,0.8245860623056283,0.8383061514169832,0.8188082543190189,0.7707693226206667,0.7257759453481514,0.6777103170479544,0.6474932047010835,0.6506642864859087,0.6956696199969352,0.7595177553756374,0.8101232858546368,0.8480688611469756,0.8742798957701687,0.8749273468032603,0.8535249025356793,0.7664374120095978,0.6791631067273531,0.597045840529077,0.5000574165305411,0.4096114329407077,0.33019735311388265,0.23536765182750674,0.1579787999014366,0.06895063636021792,0.03767301343994145,0.08581487724187786,0.18131932156688757,0.27858184083623927,0.373854848781924,0.45067762722793336,0.5446903909652425,0.6271917810242358,0.7111523178282164,0.7856905372134912,0.8418205392472871,0.8665979054032658,0.8682029569607606,0.8584791565132264,0.8694861334159016,0.8507565735941265,0.8496048862190451,0.8538694269384335,0.8738497585444076,0.8925659944148476,0.9434800401865582,0.9866860827659547,0.9805760381158173,0.9544403578704923,0.9222513224664066,0.8991475610462576,0.8618208835310366,0.834064940974379,0.8213827986676598,0.809478077489941,0.8054571420412575,0.8058267024668044,0.8180639532207099,0.7664942504086003,0.6942807526845209,0.6291552028670626,0.5781993306934958,0.5724983904006082,0.606473529801145,0.659903206847642,0.7386688211809451,0.79256062019304,0.813336432795218,0.8429767477764916,0.8483586852442802,0.803270910534085,0.7081343598471568,0.6228250178405581,0.5387620841898246,0.4417246266062249,0.35283390904029677,0.27227609933823826,0.18819720682116792,0.10952743926805919,0.06746679793828658,0.1038870172718882,0.18865161274223397,0.26626013729172504,0.362352911677184,0.45221183703573953,0.5320313491485251,0.6287338201845718,0.7246383368439044,0.7966878639571187,0.8237276976299306
0,1,2,3,4,5,6,7,8,9,10,11,12,13,14,15,16,17,18,19,20,21,22,23,24,25,26,27,28,29,30,31,32,33,34,35,36,37,38,39,40,41,42,43,44,45,46,47,48,49,50,51,52,53,54,55,56,57,58,59,60,61,62,63,64,65,66,67,68,69,70,71,72,73,74,75,76,77,78,79,80,81,82,83,84,85,86,87,88,89,90,91,92,93,94,95,96,97,98,99,100,101,102,103,104,105,106,107,108,109,110,111,112,113,114,115,116,117,118,119,120,121,122,123,124,125,126,127,128,129,130,131,132,133,134,135,136,137,138,139,140,141,142,143,144,145,146,147,148,149,150,151,152,153,154,155,156,157,158,159,160,161,162,163,164,165,166,167,168,169,170,171,172,173,174,175,176,177,178,179,180,181,182,183,184,185,186,187,188,189,190,191,192,193,194,195,196,197,198,199,200,201,202,203,204,205,206,207,208,209,210,211,212,213,214,215,216,217,218,219,220,221,222,223,224,225,226,227,228,229,230,231,232,233,234,235,236,237,238,239,240,241,242,243,244,245,246,247,248,249,250,251,252,253,254
0.340852627965341,0.3491694709277562,0.4061283880789879,0.4940232411890282,0.5524964821521685,0.5934903671190379,0.6450842304845805,0.6969815669314698,0.7595912610343873,0.8138153143062423,0.8369116083136712,0.8280493698812394,0.8413066468026162,0.8002237443470177,0.7239930869391129,0.6317148955763243,0.5344629214577674,0.43719870521372295,0.3402004236248928,0.25789511885344885,0.17352369870343454,0.10621061406433219,0.09771875271502894,0.150143418378494,0.1854973084058753,0.18995094999544504,0.22938308610778435,0.22492705436310034,0.2026158285233226,0.25299228880927194,0.348406576274896,0.4120903672232288,0.4029590028360923,0.4391352572189082,0.43148284732543907,0.47992771515927934,0.549863462780122,0.605010508915317,0.6493681555134483,0.6930287428901982,0.7680067280222165,0.8391346675847906,0.8495748479251519,0.8425093643981807,0.8333294171584322,0.8490867303384295,0.8395723775815265,0.8248527970216895,0.8414685346871682,0.8665383112339446,0.8988674049480601,0.9373704100802618,0.9656166471042811,0.9959289464466554,0.9711632427099026,0.9453580000785129,0.9146397533041002,0.8789484903121076,0.8508568629352995,0.8495874309082838,0.8424754561181516,0.8248457443438193,0.8183268284659899,0.7717151741528676,0.714377439749466,0.6560552319171338,0.6099159892599539,0.6142709401795146,0.6712980981891201,0.72167292221783,0.7774871399493675,0.8302545094574736,0.8581158495736076,0.8746233976713578,0.8731005461648724,0.8232484264876367,0.7274948094211018,0.6308657474878547,0.5516680177904032,0.4611234718735391,0.3683519110949076,0.290762199635227,0.19765743295817906,0.12147916132237224,0.06586164276000206,0.10465562096134207,0.19709359106224245,0.2739728055804136,0.3683643784720112,0.46192880477812537,0.5392622681041028,0.6321582805183601,0.7090661976231001,0.7929094278630924,0.8457583858506661,0.8702623544040389,0.8732222100374099,0.8532999611184868,0.849602157317265,0.8496372235994132,0.858770550017308,0.8756443567463794,0.901615274805402,0.9275903815393445,0.9610591709349912,0.995693079472459,0.9725364238438239,0.9385949686670738,0.9025996272721013,0.8699023133587582,0.8491514988127697,0.8298541556158572,0.8241772239656617,0.8241603249063809,0.8224438797430107,0.7836122124535247,0.726616215270071,0.671310750455075,0.6348485780484872,0.628092601117241,0.6643758844414958,0.7268208998107264,0.7904052018809216,0.8315298603287706,0.8523166178650721,0.8727762338817477,0.8616689478570771,0.7991157373387496,0.7065356900718109,0.6093622440591182,0.5232562526950599,0.4399717883396117,0.34393865043632266,0.26610346661361284,0.1738340195616881,0.08252711096584031,0.01111273674354285,0.0,0.06831482460215055,0.16356862702817754,0.24116024369884892,0.3339529057561035,0.4286511675932023,0.5056347567972121,0.5956539131309015,0.6732395646790863,0.760710416052655,0.8239242422917474,0.8490288462510591,0.8495989820884748,0.8495983346827112,0.8471288821739238,0.8304238080301536,0.8609196720968182,0.877125998516024,0.8979709558375921,0.921407300793887,0.9624238657172173,1.0,0.9971142776071975,0.9570616071337517,0.9035851195095885,0.8763959871785136,0.8500963822345042,0.8250757910731021,0.8241608205764193,0.8245860623056283,0.8383061514169832,0.8188082543190189,0.7707693226206667,0.7257759453481514,0.6777103170479544,0.6474932047010835,0.6506642864859087,0.6956696199969352,0.7595177553756374,0.8101232858546368,0.8480688611469756,0.8742798957701687,0.8749273468032603,0.8535249025356793,0.7664374120095978,0.6791631067273531,0.597045840529077,0.5000574165305411,0.4096114329407077,0.33019735311388265,0.23536765182750674,0.1579787999014366,0.06895063636021792,0.03767301343994145,0.08581487724187786,0.18131932156688757,0.27858184083623927,0.373854848781924,0.45067762722793336,0.5446903909652425,0.6271917810242358,0.7111523178282164,0.7856905372134912,0.8418205392472871,0.8665979054032658,0.8682029569607606,0.8584791565132264,0.8694861334159016,0.8507565735941265,0.8496048862190451,0.8538694269384335,0.8738497585444076,0.8925659944148476,0.9434800401865582,0.9866860827659547,0.9805760381158173,0.9544403578704923,0.9222513224664066,0.8991475610462576,0.8618208835310366,0.834064940974379,0.8213827986676598,0.809478077489941,0.8054571420412575,0.8058267024668044,0.8180639532207099,0.7664942504086003,0.6942807526845209,0.6291552028670626,0.5781993306934958,0.5724983904006082,0.606473529801145,0.659903206847642,0.7386688211809451,0.79256062019304,0.813336432795218,0.8429767477764916,0.8483586852442802,0.803270910534085,0.7081343598471568,0.6228250178405581,0.5387620841898246,0.4417246266062249,0.35283390904029677,0.27227609933823826,0.18819720682116792,0.10952743926805919,0.06746679793828658,0.1038870172718882,0.18865161274223397,0.26626013729172504,0.362352911677184,0.45221183703573953,0.5320313491485251,0.6287338201845718,0.7246383368439044,0.7966878639571187,0.8237276976299306
0,1,2,3,4,5,6,7,8,9,10,11,12,13,14,15,16,17,18,19,20,21,22,23,24,25,26,27,28,29,30,31,32,33,34,35,36,37,38,39,40,41,42,43,44,45,46,47,48,49,50,51,52,53,54,55,56,57,58,59,60,61,62,63,64,65,66,67,68,69,70,71,72,73,74,75,76,77,78,79,80,81,82,83,84,85,86,87,88,89,90,91,92,93,94,95,96,97,98,99,100,101,102,103,104,105,106,107,108,109,110,111,112,113,114,115,116,117,118,119,120,121,122,123,124,125,126,127,128,129,130,131,132,133,134,135,136,137,138,139,140,141,142,143,144,145,146,147,148,149,150,151,152,153,154,155,156,157,158,159,160,161,162,163,164,165,166,167,168,169,170,171,172,173,174,175,176,177,178,179,180,181,182,183,184,185,186,187,188,189,190,191,192,193,194,195,196,197,198,199,200,201,202,203,204,205,206,207,208,209,210,211,212,213,214,215,216,217,218,219,220,221,222,223,224,225,226,227,228,229,230,231,232,233,234,235,236,237,238,239,240,241,242,243,244,245,246,247,248,249,250,251,252,253,254
0.8878811932120743,0.8804295754918183,0.8702658207713367,0.8700379267833724,0.8775475957294614,0.8845960037046556,0.8771896931333247,0.8754633009146937,0.8698694956411346,0.8432399654406886,0.8152767886010432,0.7854504874518822,0.7679850342361496,0.7553309722542505,0.7820553848144509,0.8220409607403469,0.8577279801157969,0.8818173643617169,0.8699046442193159,0.8237226906730977,0.7625188872233981,0.707404103971492,0.6526770439308287,0.5907026418656594,0.5374853650622631,0.48213478991231296,0.4315186301183236,0.37123186408728603,0.3096705490188276,0.25878692962054184,0.20056143065027454,0.1498909807969937,0.0898058771529322,0.03592468399793969,0.0,0.027792556970861026,0.07909933660912016,0.14092757014996726,0.20317733453349418,0.26503131855810036,0.3149715014050942,0.3516717527527693,0.40765661702780265,0.46987885078845637,0.532052858094185,0.5871970508316553,0.6417059241059666,0.6952488997817847,0.7419619828615416,0.7889225714411217,0.8423589865157834,0.8862200189668694,0.9301173547118455,0.9569283302544116,0.9709315082683043,0.9618282042948734,0.957803278600083,0.9446998314933526,0.9266197240710274,0.9009659348402914,0.8614200291331728,0.823958254537698,0.777046061108366,0.7346761012540075,0.6901465867302565,0.648322529345265,0.6068217541829231,0.5689053276707183,0.5478875847760143,0.5613866852285565,0.5951178304640978,0.6355473516341907,0.682059813531376,0.7252657856780467,0.7708730910132029,0.8123353322590112,0.8494757290707604,0.8809659455820189,0.8964943436860782,0.908712081287278,0.9144466426269602,0.9118536501546688,0.902280040547988,0.9061963763532599,0.8992015151528319,0.8884334876838251,0.8951099383021079,0.9067168714524507,0.9042750910084518,0.9050043694050711,0.9142600772496119,0.9144797255345269,0.9158739483692091,0.9163379471219348,0.89364105671024,0.8684518387307512,0.8384790534101614,0.8256487580091247,0.8260956513941478,0.8431653747751342,0.8792133089438667,0.9119448209755869,0.9256653188932977,0.8942787813135455,0.8416165538671583,0.7870629552804227,0.725613747897438,0.6747129409384593,0.615349613374385,0.5599295686867116,0.5055214273353397,0.44813501566780656,0.39569467034580064,0.3340592591024434,0.28161875584323637,0.22459104129764174,0.17319141168091212,0.11527922804667279,0.07547402922906965,0.09486437373980605,0.15414829425484755,0.2050252323025905,0.26467252161484023,0.32691985026314385,0.389165581878788,0.4490457506799179,0.4998034367289208,0.5610698059096941,0.6233005194383041,0.6812177180569627,0.7331477155564212,0.7858979900366945,0.8317690720570619,0.8756654678387596,0.9199887421633666,0.9645342777755033,0.9900278373140374,0.9945086015429532,0.9922658902873691,0.9999999999999998,0.985461255416187,0.9595035200080477,0.934341183424974,0.9036277045631522,0.86432459889988,0.822731368408242,0.7751876325578408,0.7273524053684419,0.6876083205510322,0.6471486707702605,0.6098469144342731,0.572646206273131,0.5480997011213466,0.5649273323275439,0.5981393504019816,0.6429413151040795,0.6845485641981826,0.7260379373879118,0.7695113341795425,0.8136298951802312,0.8508079930557371,0.8856299889108505,0.9002932075593078,0.9174642839358136,0.9170262832628604,0.904976258395785,0.8961123954217871,0.8848343168702792,0.8728134558143432,0.8580799937243244,0.8552184084682477,0.8630546009210727,0.8750465198693431,0.8845417286908301,0.8880085249139757,0.898013734100074,0.8836753496665104,0.8618513681038242,0.8421785502595969,0.8544290264419916,0.8892424214496388,0.9038493989153429,0.9162495910269788,0.9143311036824062,0.8740185455129781,0.8375824913233407,0.7819095193960528,0.7306814538337967,0.6691666372197818,0.6116171407262205,0.5592457963157795,0.5032732473377644,0.4496541960229965,0.3881247091313478,0.33666878645270515,0.2787363318909193,0.2279261393018166,0.16837700799437894,0.11330907410431501,0.06130886828115201,0.048810118685637116,0.09103632760873981,0.15141078039588352,0.213659053512947,0.2756427878642149,0.3283102552143895,0.38558029868183996,0.4478090091594973,0.510058415639074,0.5713500258077306,0.6220301875691503,0.6805195014924135,0.7304423816893431,0.7780586504549161,0.822712491479807,0.8712983638452105,0.9170434912703362,0.9464965737535926,0.9665481949265906,0.9647159555813285,0.9457443949886313,0.9481654678781195,0.9345739851460253,0.9149937768960352,0.8863608226444633,0.8492053053520501,0.8120054864043007,0.7657846098016419,0.7173406453728128,0.673330957079407,0.6360078480522862,0.5954042571624154,0.5583189936538451,0.5215946150457655,0.502083445951419,0.5282363799743754,0.5696914512088072,0.6157448219567276,0.6619297045333778,0.7038295145239954,0.7455417814101273,0.7911545113692655,0.8311856446157428,0.8712594503139945,0.8867864349842309,0.9009376229431882,0.9135796266183782,0.9121020381714235,0.8947241830609116,0.8845872722759138,0.8744453107427981,0.8790864787372541,0.8773578357069975,0.8829652399580425,0.8847787159084415
0,1,2,3,4,5,6,7,8,9,10,11,12,13,14,15,16,17,18,19,20,21,22,23,24,25,26,27,28,29,30,31,32,33,34,35,36,37,38,39,40,41,42,43,44,45,46,47,48,49,50,51,52,53,54,55,56,57,58,59,60,61,62,63,64,65,66,67,68,69,70,71,72,73,74,75,76,77,78,79,80,81,82,83,84,85,86,87,88,89,90,91,92,93,94,95,96,97,98,99,100,101,102,103,104,105,106,107,108,109,110,111,112,113,114,115,116,117,118,119,120,121,122,123,124,125,126,127,128,129,130,131,132,133,134,135,136,137,138,139,140,141,142,143,144,145,146,147,148,149,150,151,152,153,154,155,156,157,158,159,160,161,162,163,164,165,166,167,168,169,170,171,172,173,174,175,176,177,178,179,180,181,182,183,184,185,186,187,188,189,190,191,192,193,194,195,196,197,198,199,200,201,202,203,204,205,206,207,208,209,210,211,212,213,214,215,216,217,218,219,220,221,222,223,224,225,226,227,228,229,230,231,232,233,234,235,236,237,238,239,240,241,242,243,244,245,246,247,248,249,250,251,252,253,254
0.1000062576500178,0.10344944045405624,0.13714289366788535,0.19065793584286395,0.2504682272930694,0.2786628435009342,0.26723499611575807,0.2577725025921853,0.23904079242279286,0.19729959617455517,0.14375705152827134,0.10475417141819321,0.056348872302888875,0.020792245451291436,0.0015567713307294007,0.0005018663902012221,0.018248505902130674,0.07197991441341633,0.1169550322855164,0.16045866283069055,0.20226858975348838,0.22292196224913985,0.25184910538963434,0.28090975227978143,0.26931810351754715,0.23826524788126457,0.2011460629552171,0.14368815102508625,0.08304377121505668,0.02558985283979265,0.0026862775919469506,9.64949363257972e-06,0.0,0.0020316955205199605,0.0293739548618559,0.023858122456183573,0.00890711706102687,0.037145153145119014,0.09039775217007362,0.12511933368516193,0.14785723853635035,0.14225452587541465,0.17704191034959926,0.18396889509544945,0.20101782540514845,0.21744379980806894,0.2409840959882943,0.24912724313815282,0.23891540692487023,0.24502844422306236,0.21315060808880215,0.17162203565449863,0.18576381138509257,0.22478168615134209,0.2815007106077192,0.329013815423322,0.3883973922062629,0.43881918994387803,0.49327082119964816,0.5537455195583583,0.6045101988047179,0.6585205519302728,0.712552733704316,0.7505344214927523,0.716703917319498,0.6688808149756356,0.6115378316127247,0.5509813989559817,0.49905794657221136,0.446187975358491,0.39096138252146995,0.3412906585649118,0.2817752928806563,0.23450101567273052,0.1981584652930901,0.18134287376856761,0.16833244984331586,0.18689685388332,0.21513777092965558,0.22978617616079067,0.24163862273210412,0.23440817994453367,0.2496553459425055,0.2654680695799807,0.26953042265239313,0.2884780315587019,0.3163387621265614,0.3394260071013768,0.35182197061471454,0.3745156868637771,0.4111764820300019,0.4412227653231984,0.43906825098486424,0.4161317451286797,0.3926050614280272,0.3675719458519269,0.3430729744985461,0.3334316356193603,0.3329908091335607,0.32157171342927526,0.32937824078389255,0.34281592910642766,0.33685871070133233,0.34850746241170105,0.3500157342885193,0.35455741956428266,0.36651553919039026,0.37688716195689276,0.37655216604504993,0.36693659083337105,0.37653488069525265,0.38723965517675873,0.40599051659038654,0.41290496375039076,0.3947098049183362,0.39035574659255845,0.40968999100182524,0.4006900379354592,0.3986329764376624,0.38217085321425426,0.3574645604775113,0.3522570602433306,0.3736313425504916,0.37840930482738555,0.3690031054508336,0.3831311922756342,0.3984942248402148,0.4132856486330825,0.4161221460830147,0.4022398038937012,0.37730525549956884,0.3536958336476759,0.37237480578880255,0.42148388452307506,0.4699755665056551,0.5297229952552729,0.5784361130668851,0.6348863897721961,0.6954572995744766,0.7485494888895361,0.8002684796469581,0.8557227309644952,0.8736629050456646,0.8245037693785289,0.7640603775258068,0.7131147787805223,0.6592028221872415,0.5986037458501863,0.5379520217992089,0.4808900159950795,0.43278647020608174,0.3817396647557407,0.33213015632185616,0.30288538056132186,0.31056595673460485,0.32693511301765454,0.3491478786666362,0.36939271471660184,0.3831279406805992,0.3899360850651883,0.392441631509854,0.3995658853594408,0.41866257505111193,0.43284333103069406,0.4532233636897387,0.47726285069467034,0.4942246041796712,0.5301124791137486,0.5656740647995915,0.6003668058160514,0.6261572999339879,0.6234543719173304,0.6240021499686224,0.5866588033302165,0.5463690500519394,0.5167879190574372,0.4903627184484667,0.45591623396107606,0.4354370744643119,0.416342686952309,0.4046849807324264,0.4064201284062352,0.407558571002558,0.4252708744165403,0.4120023306533285,0.4004020336792702,0.4002735510898403,0.41340080242563015,0.43224523882472177,0.42711614621778127,0.40461645315848127,0.4174358381095109,0.4330129415105102,0.43890210439338073,0.44613967769938334,0.4205455874468824,0.4264013936229918,0.4333479030052132,0.4396922325356565,0.44613878432890797,0.4235243566345379,0.4227307639062592,0.42974762233273633,0.4081259929779897,0.4140692255869025,0.4181373935497983,0.4265693407478377,0.4196965839308726,0.45268440112349584,0.46922605414422724,0.4878807994555099,0.5096052933377346,0.5010885033870145,0.4964982113421925,0.46813888974087803,0.4527315892666399,0.480523714997374,0.5342601417716635,0.5819602376702759,0.6418021983425821,0.6997802358721992,0.7473685295208004,0.8070634388406832,0.8614821622981297,0.911946561050585,0.9720483006356146,1.0,0.961046586624207,0.9023389696369564,0.8457339797142853,0.7971488989715496,0.7370810232857719,0.6843974425934229,0.6324196532103739,0.5810881823218432,0.5287685508540605,0.4819271083434433,0.4377345322077586,0.4056251602923058,0.41044234477844777,0.4322133174516738,0.42200575359724324,0.419652185133641,0.44120566563241104,0.43946116711887884,0.44950951555746776,0.44223598206844317,0.4334499558540412,0.4358136052674908,0.4494527582664749,0.4696784107008236,0.4995581652275991,0.5223962740730794,0.547589921979545,0.5375117687517963
0,1,2,3,4,5,6,7,8,9,10,11,12,13,14,15,16,17,18,19,20,21,22,23,24,25,26,27,28,29,30,31,32,33,34,35,36,37,38,39,40,41,42,43,44,45,46,47,48,49,50,51,52,53,54,55,56,57,58,59,60,61,62,63,64,65,66,67,68,69,70,71,72,73,74,75,76,77,78,79,80,81,82,83,84,85,86,87,88,89,90,91,92,93,94,95,96,97,98,99,100,101,102,103,104,105,106,107,108,109,110,111,112,113,114,115,116,117,118,119,120,121,122,123,124,125,126,127,128,129,130,131,132,133,134,135,136,137,138,139,140,141,142,143,144,145,146,147,148,149,150,151,152,153,154,155,156,157,158,159,160,161,162,163,164,165,166,167,168,169,170,171,172,173,174,175,176,177,178,179,180,181,182,183,184,185,186,187,188,189,190,191,192,193,194,195,196,197,198,199,200,201,202,203,204,205,206,207,208,209,210,211,212,213,214,215,216,217,218,219,220,221,222,223,224,225,226,227,228,229,230,231,232,233,234,235,236,237,238,239,240,241,242,243,244,245,246,247,248,249,250,251,252,253,254
0.1000062576500178,0.10344944045405624,0.13714289366788535,0.19065793584286395,0.2504682272930694,0.2786628435009342,0.26723499611575807,0.2577725025921853,0.23904079242279286,0.19729959617455517,0.14375705152827134,0.10475417141819321,0.056348872302888875,0.020792245451291436,0.0015567713307294007,0.0005018663902012221,0.018248505902130674,0.07197991441341633,0.1169550322855164,0.16045866283069055,0.20226858975348838,0.22292196224913985,0.25184910538963434,0.28090975227978143,0.26931810351754715,0.23826524788126457,0.2011460629552171,0.14368815102508625,0.08304377121505668,0.02558985283979265,0.0026862775919469506,9.64949363257972e-06,0.0,0.0020316955205199605,0.0293739548618559,0.023858122456183573,0.00890711706102687,0.037145153145119014,0.09039775217007362,0.12511933368516193,0.14785723853635035,0.14225452587541465,0.17704191034959926,0.18396889509544945,0.20101782540514845,0.21744379980806894,0.2409840959882943,0.24912724313815282,0.23891540692487023,0.24502844422306236,0.21315060808880215,0.17162203565449863,0.18576381138509257,0.22478168615134209,0.2815007106077192,0.329013815423322,0.3883973922062629,0.43881918994387803,0.49327082119964816,0.5537455195583583,0.6045101988047179,0.6585205519302728,0.712552733704316,0.7505344214927523,0.716703917319498,0.6688808149756356,0.6115378316127247,0.5509813989559817,0.49905794657221136,0.446187975358491,0.39096138252146995,0.3412906585649118,0.2817752928806563,0.23450101567273052,0.1981584652930901,0.18134287376856761,0.16833244984331586,0.18689685388332,0.21513777092965558,0.22978617616079067,0.24163862273210412,0.23440817994453367,0.2496553459425055,0.2654680695799807,0.26953042265239313,0.2884780315587019,0.3163387621265614,0.3394260071013768,0.35182197061471454,0.3745156868637771,0.4111764820300019,0.4412227653231984,0.43906825098486424,0.4161317451286797,0.3926050614280272,0.3675719458519269,0.3430729744985461,0.3334316356193603,0.3329908091335607,0.32157171342927526,0.32937824078389255,0.34281592910642766,0.33685871070133233,0.34850746241170105,0.3500157342885193,0.35455741956428266,0.36651553919039026,0.37688716195689276,0.37655216604504993,0.36693659083337105,0.37653488069525265,0.38723965517675873,0.40599051659038654,0.41290496375039076,0.3947098049183362,0.39035574659255845,0.40968999100182524,0.4006900379354592,0.3986329764376624,0.38217085321425426,0.3574645604775113,0.3522570602433306,0.3736313425504916,0.37840930482738555,0.3690031054508336,0.3831311922756342,0.3984942248402148,0.4132856486330825,0.4161221460830147,0.4022398038937012,0.37730525549956884,0.3536958336476759,0.37237480578880255,0.42148388452307506,0.4699755665056551,0.5297229952552729,0.5784361130668851,0.6348863897721961,0.6954572995744766,0.7485494888895361,0.8002684796469581,0.8557227309644952,0.8736629050456646,0.8245037693785289,0.7640603775258068,0.7131147787805223,0.6592028221872415,0.5986037458501863,0.5379520217992089,0.4808900159950795,0.43278647020608174,0.3817396647557407,0.33213015632185616,0.30288538056132186,0.31056595673460485,0.32693511301765454,0.3491478786666362,0.36939271471660184,0.3831279406805992,0.3899360850651883,0.392441631509854,0.3995658853594408,0.41866257505111193,0.43284333103069406,0.4532233636897387,0.47726285069467034,0.4942246041796712,0.5301124791137486,0.5656740647995915,0.6003668058160514,0.6261572999339879,0.6234543719173304,0.6240021499686224,0.5866588033302165,0.5463690500519394,0.5167879190574372,0.4903627184484667,0.45591623396107606,0.4354370744643119,0.416342686952309,0.4046849807324264,0.4064201284062352,0.407558571002558,0.4252708744165403,0.4120023306533285,0.4004020336792702,0.4002735510898403,0.41340080242563015,0.43224523882472177,0.42711614621778127,0.40461645315848127,0.4174358381095109,0.4330129415105102,0.43890210439338073,0.44613967769938334,0.4205455874468824,0.4264013936229918,0.4333479030052132,0.4396922325356565,0.44613878432890797,0.4235243566345379,0.4227307639062592,0.42974762233273633,0.4081259929779897,0.4140692255869025,0.4181373935497983,0.4265693407478377,0.4196965839308726,0.45268440112349584,0.46922605414422724,0.4878807994555099,0.5096052933377346,0.5010885033870145,0.4964982113421925,0.46813888974087803,0.4527315892666399,0.480523714997374,0.5342601417716635,0.5819602376702759,0.6418021983425821,0.6997802358721992,0.7473685295208004,0.8070634388406832,0.8614821622981297,0.911946561050585,0.9720483006356146,1.0,0.961046586624207,0.9023389696369564,0.8457339797142853,0.7971488989715496,0.7370810232857719,0.6843974425934229,0.6324196532103739,0.5810881823218432,0.5287685508540605,0.4819271083434433,0.4377345322077586,0.4056251602923058,0.41044234477844777,0.4322133174516738,0.42200575359724324,0.419652185133641,0.44120566563241104,0.43946116711887884,0.44950951555746776,0.44223598206844317,0.4334499558540412,0.4358136052674908,0.4494527582664749,0.4696784107008236,0.4995581652275991,0.5223962740730794,0.547589921979545,0.5375117687517963
0,1,2,3,4,5,6,7,8,9,10,11,12,13,14,15,16,17,18,19,20,21,22,23,24,25,26,27,28,29,30,31,32,33,34,35,36,37,38,39,40,41,42,43,44,45,46,47,48,49,50,51,52,53,54,55,56,57,58,59,60,61,62,63,64,65,66,67,68,69,70,71,72,73,74,75,76,77,78,79,80,81,82,83,84,85,86,87,88,89,90,91,92,93,94,95,96,97,98,99,100,101,102,103,104,105,106,107,108,109,110,111,112,113,114,115,116,117,118,119,120,121,122,123,124,125,126,127,128,129,130,131,132,133,134,135,136,137,138,139,140,141,142,143,144,145,146,147,148,149,150,151,152,153,154,155,156,157,158,159,160,161,162,163,164,165,166,167,168,169,170,171,172,173,174,175,176,177,178,179,180,181,182,183,184,185,186,187,188,189,190,191,192,193,194,195,196,197,198,199,200,201,202,203,204,205,206,207,208,209,210,211,212,213,214,215,216,217,218,219,220,221,222,223,224,225,226,227,228,229,230,231,232,233,234,235,236,237,238,239,240,241,242,243,244,245,246,247,248,249,250,251,252,253,254
0.1000062576500178,0.10344944045405624,0.13714289366788535,0.19065793584286395,0.2504682272930694,0.2786628435009342,0.26723499611575807,0.2577725025921853,0.23904079242279286,0.19729959617455517,0.14375705152827134,0.10475417141819321,0.056348872302888875,0.020792245451291436,0.0015567713307294007,0.0005018663902012221,0.018248505902130674,0.07197991441341633,0.1169550322855164,0.16045866283069055,0.20226858975348838,0.22292196224913985,0.25184910538963434,0.28090975227978143,0.26931810351754715,0.23826524788126457,0.2011460629552171,0.14368815102508625,0.08304377121505668,0.02558985283979265,0.0026862775919469506,9.64949363257972e-06,0.0,0.0020316955205199605,0.0293739548618559,0.023858122456183573,0.00890711706102687,0.037145153145119014,0.09039775217007362,0.12511933368516193,0.14785723853635035,0.14225452587541465,0.17704191034959926,0.18396889509544945,0.20101782540514845,0.21744379980806894,0.2409840959882943,0.24912724313815282,0.23891540692487023,0.24502844422306236,0.21315060808880215,0.17162203565449863,0.18576381138509257,0.22478168615134209,0.2815007106077192,0.329013815423322,0.3883973922062629,0.43881918994387803,0.49327082119964816,0.5537455195583583,0.6045101988047179,0.6585205519302728,0.712552733704316,0.7505344214927523,0.716703917319498,0.6688808149756356,0.6115378316127247,0.5509813989559817,0.49905794657221136,0.446187975358491,0.39096138252146995,0.3412906585649118,0.2817752928806563,0.23450101567273052,0.1981584652930901,0.18134287376856761,0.16833244984331586,0.18689685388332,0.21513777092965558,0.22978617616079067,0.24163862273210412,0.23440817994453367,0.2496553459425055,0.2654680695799807,0.26953042265239313,0.2884780315587019,0.3163387621265614,0.3394260071013768,0.35182197061471454,0.3745156868637771,0.4111764820300019,0.4412227653231984,0.43906825098486424,0.4161317451286797,0.3926050614280272,0.3675719458519269,0.3430729744985461,0.3334316356193603,0.3329908091335607,0.32157171342927526,0.32937824078389255,0.34281592910642766,0.33685871070133233,0.34850746241170105,0.3500157342885193,0.35455741956428266,0.36651553919039026,0.37688716195689276,0.37655216604504993,0.36693659083337105,0.37653488069525265,0.38723965517675873,0.40599051659038654,0.41290496375039076,0.3947098049183362,0.39035574659255845,0.40968999100182524,0.4006900379354592,0.3986329764376624,0.38217085321425426,0.3574645604775113,0.3522570602433306,0.3736313425504916,0.37840930482738555,0.3690031054508336,0.3831311922756342,0.3984942248402148,0.4132856486330825,0.4161221460830147,0.4022398038937012,0.37730525549956884,0.3536958336476759,0.37237480578880255,0.42148388452307506,0.4699755665056551,0.5297229952552729,0.5784361130668851,0.6348863897721961,0.6954572995744766,0.7485494888895361,0.8002684796469581,0.8557227309644952,0.8736629050456646,0.8245037693785289,0.7640603775258068,0.7131147787805223,0.6592028221872415,0.5986037458501863,0.5379520217992089,0.4808900159950795,0.43278647020608174,0.3817396647557407,0.33213015632185616,0.30288538056132186,0.31056595673460485,0.32693511301765454,0.3491478786666362,0.36939271471660184,0.3831279406805992,0.3899360850651883,0.392441631509854,0.3995658853594408,0.41866257505111193,0.43284333103069406,0.4532233636897387,0.47726285069467034,0.4942246041796712,0.5301124791137486,0.5656740647995915,0.6003668058160514,0.6261572999339879,0.6234543719173304,0.6240021499686224,0.5866588033302165,0.5463690500519394,0.5167879190574372,0.4903627184484667,0.45591623396107606,0.4354370744643119,0.416342686952309,0.4046849807324264,0.4064201284062352,0.407558571002558,0.4252708744165403,0.4120023306533285,0.4004020336792702,0.4002735510898403,0.41340080242563015,0.43224523882472177,0.42711614621778127,0.40461645315848127,0.4174358381095109,0.4330129415105102,0.43890210439338073,0.44613967769938334,0.4205455874468824,0.4264013936229918,0.4333479030052132,0.4396922325356565,0.44613878432890797,0.4235243566345379,0.4227307639062592,0.42974762233273633,0.4081259929779897,0.4140692255869025,0.4181373935497983,0.4265693407478377,0.4196965839308726,0.45268440112349584,0.46922605414422724,0.4878807994555099,0.5096052933377346,0.5010885033870145,0.4964982113421925,0.46813888974087803,0.4527315892666399,0.480523714997374,0.5342601417716635,0.5819602376702759,0.6418021983425821,0.6997802358721992,0.7473685295208004,0.8070634388406832,0.8614821622981297,0.911946561050585,0.9720483006356146,1.0,0.961046586624207,0.9023389696369564,0.8457339797142853,0.7971488989715496,0.7370810232857719,0.6843974425934229,0.6324196532103739,0.5810881823218432,0.5287685508540605,0.4819271083434433,0.4377345322077586,0.4056251602923058,0.41044234477844777,0.4322133174516738,0.42200575359724324,0.419652185133641,0.44120566563241104,0.43946116711887884,0.44950951555746776,0.44223598206844317,0.4334499558540412,0.4358136052674908,0.4494527582664749,0.4696784107008236,0.4995581652275991,0.5223962740730794,0.547589921979545,0.5375117687517963
0,1,2,3,4,5,6,7,8,9,10,11,12,13,14,15,16,17,18,19,20,21,22,23,24,25,26,27,28,29,30,31,32,33,34,35,36,37,38,39,40,41,42,43,44,45,46,47,48,49,50,51,52,53,54,55,56,57,58,59,60,61,62,63,64,65,66,67,68,69,70,71,72,73,74,75,76,77,78,79,80,81,82,83,84,85,86,87,88,89,90,91,92,93,94,95,96,97,98,99,100,101,102,103,104,105,106,107,108,109,110,111,112,113,114,115,116,117,118,119,120,121,122,123,124,125,126,127,128,129,130,131,132,133,134,135,136,137,138,139,140,141,142,143,144,145,146,147,148,149,150,151,152,153,154,155,156,157,158,159,160,161,162,163,164,165,166,167,168,169,170,171,172,173,174,175,176,177,178,179,180,181,182,183,184,185,186,187,188,189,190,191,192,193,194,195,196,197,198,199,200,201,202,203,204,205,206,207,208,209,210,211,212,213,214,215,216,217,218,219,220,221,222,223,224,225,226,227,228,229,230,231,232,233,234,235,236,237,238,239,240,241,242,243,244,245,246,247,248,249,250,251,252,253,254
0.1818524455274,0.18477058967411075,0.23277962820130682,0.31304649567463194,0.4134340596358337,0.49799924787103667,0.4609478269128049,0.38605515250765343,0.3034869094646826,0.22006760410432324,0.1614547470021881,0.12903737622793265,0.06275598282230277,0.015225740489788642,0.0,0.0024027034562434935,0.047097920685730266,0.14144317124872963,0.21380227009643438,0.2852860900783698,0.35794917495752987,0.40646122438037136,0.41492280856976294,0.48244275635565614,0.5415050208718348,0.5213581693171232,0.4545436635934639,0.38724964243315263,0.30911355747446656,0.29564778849433093,0.3909842866781954,0.4917072532932192,0.5904911862110769,0.6673106764250614,0.7585385354605743,0.7954823910668161,0.8367304661662907,0.8707164042047264,0.880154563438948,0.8891513110008518,0.9304446426202553,0.9464704465082336,0.9699250835010034,0.971225642119868,0.9725412921290904,0.9946876170053818,0.9769432244508787,0.9423011947861459,0.8760015463778377,0.8191018166692174,0.7683233430434742,0.7056266246197067,0.6527948686799023,0.6027661623022427,0.5775099205977359,0.5953353405986617,0.6290139914740145,0.6625173978015333,0.7018523009495992,0.7278213158175078,0.7283412424366276,0.7288516797135509,0.7484694161380361,0.73902295172884,0.7230725972983096,0.6994914699937604,0.6949307618794585,0.6707828329426029,0.6852970034606329,0.6716965572476203,0.6835318994237909,0.697872042107825,0.6979897939880235,0.7048979943997971,0.7273633166453903,0.7283411878118242,0.72732034004133,0.6905924497149032,0.6575189907297307,0.6070652469077515,0.5788355490519832,0.5773197828949863,0.6012451623718658,0.6403574412819912,0.6785308598938986,0.7262272565149592,0.782457135911411,0.8384430774443281,0.8497632753162891,0.849783087774421,0.8479818276417372,0.8137597969790029,0.7501804151585079,0.6541301196330664,0.5779414626833672,0.48232276967066756,0.4040817843100388,0.3185797199218605,0.24014105335552305,0.17002822502112824,0.15649018915667234,0.21978722211420632,0.29715651492827,0.39669690089399,0.4974210203959597,0.5955799908170416,0.6717659545618533,0.7490300159033811,0.7757453141653778,0.8093875703967814,0.8418885648943579,0.8576622158889791,0.8992199071028768,0.9326713646939373,0.9479526955096063,0.9702939651922833,0.9721109351119939,0.9950890189740189,1.0,0.9735408909475698,0.9392692297689678,0.883544566178899,0.8252480573717369,0.7652285707974427,0.7022747443655364,0.6496706999755357,0.5901424284428254,0.5543566608256443,0.5505133430418958,0.597419390208155,0.6257456947985851,0.6673273514045412,0.7087823415280354,0.7285523921080879,0.7474780472353864,0.7586784196467073,0.7541846666641909,0.7286368472999349,0.7022190878082091,0.6979850808499481,0.6979806481632442,0.6979806481632442,0.6971410453420424,0.6750917446232254,0.667641677681786,0.6734336811542434,0.6829760575232822,0.6599588893218682,0.6149958508223774,0.5778839719494684,0.5518957779286815,0.5474601362589135,0.5712163273820883,0.5994100361647918,0.6410352972289592,0.6999227314306733,0.7641586340461677,0.8107481627584558,0.8074945568582317,0.7924967532356808,0.8178843283166382,0.8388695153994368,0.7993073786143876,0.7236863982446851,0.6355812489098653,0.5407635005755589,0.46334420690240563,0.3743677645027521,0.29435245134263255,0.21965529864493583,0.1633426915725371,0.1712328610794458,0.24312353549940902,0.34311936073485416,0.4437975310055977,0.5327276337269877,0.5887006922835774,0.6648485289093298,0.7265510452347801,0.7774360358534613,0.7387216576319098,0.7499314033786879,0.7984797222937345,0.834059267633319,0.8525282063530186,0.8813307812624496,0.9147822605951372,0.9397389208492948,0.9527102408003216,0.9905293515519817,0.9737588832703512,0.98191309720821,0.9907407404090511,0.944432561224982,0.894066700103795,0.8413344169514003,0.7863827691448897,0.7292537646774493,0.6774301521613433,0.623415478845696,0.5635229835811488,0.5463847348307835,0.5633379174061748,0.6053182944411661,0.6472828416383498,0.6973143523023797,0.7272154211396415,0.7283411343018127,0.7283412446662112,0.7288602590576803,0.7468468926492822,0.7318310652210513,0.7149296818129285,0.6979546857801449,0.678807012805974,0.6841628433972051,0.6978720280571729,0.6887715032810338,0.6864145646015185,0.7242327023073969,0.7279038659863879,0.6941526641621873,0.6441527668897908,0.6167397006689885,0.5798010459353771,0.5856795396155272,0.6105863818256791,0.6504428547833596,0.6880937584514761,0.7405960888011229,0.8027212653272251,0.8470912161019788,0.876665449577497,0.857144478241076,0.8225729821478245,0.8498703104941008,0.8694894256423442,0.8104982454108605,0.7356485702506443,0.6437608078731056,0.567763840093936,0.4701523677369783,0.38774060175428815,0.29976128771876276,0.22187539880098672,0.1569667829289676,0.1752595465351634,0.26683252306036565,0.34690955874569607,0.4385042732597926,0.5392128149856719,0.6399384144369122,0.7403727287929032,0.8071983897847277,0.7904573737855634
0,1,2,3,4,5,6,7,8,9,10,11,12,13,14,15,16,17,18,19,20,21,22,23,24,25,26,27,28,29,30,31,32,33,34,35,36,37,38,39,40,41,42,43,44,45,46,47,48,49,50,51,52,53,54,55,56,57,58,59,60,61,62,63,64,65,66,67,68,69,70,71,72,73,74,75,76,77,78,79,80,81,82,83,84,85,86,87,88,89,90,91,92,93,94,95,96,97,98,99,100,101,102,103,104,105,106,107,108,109,110,111,112,113,114,115,116,117,118,119,120,121,122,123,124,125,126,127,128,129,130,131,132,133,134,135,136,137,138,139,140,141,142,143,144,145,146,147,148,149,150,151,152,153,154,155,156,157,158,159,160,161,162,163,164,165,166,167,168,169,170,171,172,173,174,175,176,177,178,179,180,181,182,183,184,185,186,187,188,189,190,191,192,193,194,195,196,197,198,199,200,201,202,203,204,205,206,207,208,209,210,211,212,213,214,215,216,217,218,219,220,221,222,223,224,225,226,227,228,229,230,231,232,233,234,235,236,237,238,239,240,241,242,243,244,245,246,247,248,249,250,251,252,253,254
0.1818524455274,0.18477058967411075,0.23277962820130682,0.31304649567463194,0.4134340596358337,0.49799924787103667,0.4609478269128049,0.38605515250765343,0.3034869094646826,0.22006760410432324,0.1614547470021881,0.12903737622793265,0.06275598282230277,0.015225740489788642,0.0,0.0024027034562434935,0.047097920685730266,0.14144317124872963,0.21380227009643438,0.2852860900783698,0.35794917495752987,0.40646122438037136,0.41492280856976294,0.48244275635565614,0.5415050208718348,0.5213581693171232,0.4545436635934639,0.38724964243315263,0.30911355747446656,0.29564778849433093,0.3909842866781954,0.4917072532932192,0.5904911862110769,0.6673106764250614,0.7585385354605743,0.7954823910668161,0.8367304661662907,0.8707164042047264,0.880154563438948,0.8891513110008518,0.9304446426202553,0.9464704465082336,0.9699250835010034,0.971225642119868,0.9725412921290904,0.9946876170053818,0.9769432244508787,0.9423011947861459,0.8760015463778377,0.8191018166692174,0.7683233430434742,0.7056266246197067,0.6527948686799023,0.6027661623022427,0.5775099205977359,0.5953353405986617,0.6290139914740145,0.6625173978015333,0.7018523009495992,0.7278213158175078,0.7283412424366276,0.7288516797135509,0.7484694161380361,0.73902295172884,0.7230725972983096,0.6994914699937604,0.6949307618794585,0.6707828329426029,0.6852970034606329,0.6716965572476203,0.6835318994237909,0.697872042107825,0.6979897939880235,0.7048979943997971,0.7273633166453903,0.7283411878118242,0.72732034004133,0.6905924497149032,0.6575189907297307,0.6070652469077515,0.5788355490519832,0.5773197828949863,0.6012451623718658,0.6403574412819912,0.6785308598938986,0.7262272565149592,0.782457135911411,0.8384430774443281,0.8497632753162891,0.849783087774421,0.8479818276417372,0.8137597969790029,0.7501804151585079,0.6541301196330664,0.5779414626833672,0.48232276967066756,0.4040817843100388,0.3185797199218605,0.24014105335552305,0.17002822502112824,0.15649018915667234,0.21978722211420632,0.29715651492827,0.39669690089399,0.4974210203959597,0.5955799908170416,0.6717659545618533,0.7490300159033811,0.7757453141653778,0.8093875703967814,0.8418885648943579,0.8576622158889791,0.8992199071028768,0.9326713646939373,0.9479526955096063,0.9702939651922833,0.9721109351119939,0.9950890189740189,1.0,0.9735408909475698,0.9392692297689678,0.883544566178899,0.8252480573717369,0.7652285707974427,0.7022747443655364,0.6496706999755357,0.5901424284428254,0.5543566608256443,0.5505133430418958,0.597419390208155,0.6257456947985851,0.6673273514045412,0.7087823415280354,0.7285523921080879,0.7474780472353864,0.7586784196467073,0.7541846666641909,0.7286368472999349,0.7022190878082091,0.6979850808499481,0.6979806481632442,0.6979806481632442,0.6971410453420424,0.6750917446232254,0.667641677681786,0.6734336811542434,0.6829760575232822,0.6599588893218682,0.6149958508223774,0.5778839719494684,0.5518957779286815,0.5474601362589135,0.5712163273820883,0.5994100361647918,0.6410352972289592,0.6999227314306733,0.7641586340461677,0.8107481627584558,0.8074945568582317,0.7924967532356808,0.8178843283166382,0.8388695153994368,0.7993073786143876,0.7236863982446851,0.6355812489098653,0.5407635005755589,0.46334420690240563,0.3743677645027521,0.29435245134263255,0.21965529864493583,0.1633426915725371,0.1712328610794458,0.24312353549940902,0.34311936073485416,0.4437975310055977,0.5327276337269877,0.5887006922835774,0.6648485289093298,0.7265510452347801,0.7774360358534613,0.7387216576319098,0.7499314033786879,0.7984797222937345,0.834059267633319,0.8525282063530186,0.8813307812624496,0.9147822605951372,0.9397389208492948,0.9527102408003216,0.9905293515519817,0.9737588832703512,0.98191309720821,0.9907407404090511,0.944432561224982,0.894066700103795,0.8413344169514003,0.7863827691448897,0.7292537646774493,0.6774301521613433,0.623415478845696,0.5635229835811488,0.5463847348307835,0.5633379174061748,0.6053182944411661,0.6472828416383498,0.6973143523023797,0.7272154211396415,0.7283411343018127,0.7283412446662112,0.7288602590576803,0.7468468926492822,0.7318310652210513,0.7149296818129285,0.6979546857801449,0.678807012805974,0.6841628433972051,0.6978720280571729,0.6887715032810338,0.6864145646015185,0.7242327023073969,0.7279038659863879,0.6941526641621873,0.6441527668897908,0.6167397006689885,0.5798010459353771,0.5856795396155272,0.6105863818256791,0.6504428547833596,0.6880937584514761,0.7405960888011229,0.8027212653272251,0.8470912161019788,0.876665449577497,0.857144478241076,0.8225729821478245,0.8498703104941008,0.8694894256423442,0.8104982454108605,0.7356485702506443,0.6437608078731056,0.567763840093936,0.4701523677369783,0.38774060175428815,0.29976128771876276,0.22187539880098672,0.1569667829289676,0.1752595465351634,0.26683252306036565,0.34690955874569607,0.4385042732597926,0.5392128149856719,0.6399384144369122,0.7403727287929032,0.8071983897847277,0.7904573737855634
0,1,2,3,4,5,6,7,8,9,10,11,12,13,14,15,16,17,18,19,20,21,22,23,24,25,26,27,28,29,30,31,32,33,34,35,36,37,38,39,40,41,42,43,44,45,46,47,48,49,50,51,52,53,54,55,56,57,58,59,60,61,62,63,64,65,66,67,68,69,70,71,72,73,74,75,76,77,78,79,80,81,82,83,84,85,86,87,88,89,90,91,92,93,94,95,96,97,98,99,100,101,102,103,104,105,106,107,108,109,110,111,112,113,114,115,116,117,118,119,120,121,122,123,124,125,126,127,128,129,130,131,132,133,134,135,136,137,138,139,140,141,142,143,144,145,146,147,148,149,150,151,152,153,154,155,156,157,158,159,160,161,162,163,164,165,166,167,168,169,170,171,172,173,174,175,176,177,178,179,180,181,182,183,184,185,186,187,188,189,190,191,192,193,194,195,196,197,198,199,200,201,202,203,204,205,206,207,208,209,210,211,212,213,214,215,216,217,218,219,220,221,222,223,224,225,226,227,228,229,230,231,232,233,234,235,236,237,238,239,240,241,242,243,244,245,246,247,248,249,250,251,252,253,254
0.8078855217037546,0.8079601465504558,0.8235088123128698,0.8504007906418698,0.8108434517491165,0.8078867327470869,0.8078855217037546,0.8078855217037546,0.8078855217037546,0.8078884537034021,0.8173950539645389,0.8551740522426909,0.8554423392853048,0.8221797344110584,0.8079403203972788,0.8078865415297187,0.8106714234623862,0.8455115293923887,0.8109581372736034,0.8078868602253326,0.8078855217037546,0.8078855217037546,0.8078855217037546,0.8072167061518725,0.770692261597028,0.76006237958737,0.7888865871225619,0.8058851356587153,0.7669708434719569,0.7598569021296937,0.762524867668577,0.8019008641977816,0.8078852667472631,0.8078855217037546,0.8077830899085043,0.7833520017484794,0.7600075808938458,0.7592039373813266,0.7007970744422636,0.6197509742579772,0.6102960636698569,0.570569733573631,0.5698845524263572,0.6145812743180388,0.6778645837016626,0.7612132679336847,0.8095514461453321,0.8608424825726457,0.9032347123574516,0.8974434539260097,0.8584165799204913,0.8559180931034271,0.8559128027562375,0.8469675635863192,0.7841833176549482,0.7027113502875837,0.6014802718920178,0.5200010491265372,0.4720026192094515,0.41493094313892787,0.2938500109886055,0.17048046814429352,0.057625878910059214,0.0,0.012625666868156138,0.08780520782064283,0.2070234426481301,0.2956776517257973,0.40687216780572744,0.5268467016070559,0.6100077908206183,0.7289620563286308,0.8498496311101471,0.8873679093691615,0.8481075741452004,0.8051590172549679,0.7629836097665246,0.7599732960788268,0.7795203657202716,0.8076397679535177,0.7922924858143032,0.7605206117723347,0.7685657369541312,0.806925907540605,0.786446440256813,0.7792763144576673,0.8070993695209205,0.773139400513811,0.7741760937400928,0.7892630091077271,0.760161321548531,0.7383105968259338,0.6793317624465844,0.6571810452586551,0.6180080250021787,0.5880466329988332,0.5273818796926673,0.4664811809987892,0.3992795258551949,0.3305844007049332,0.30338105867322795,0.24274067971109137,0.18183998101721421,0.12024324470067871,0.08784257112705607,0.08740906114198488,0.09135021034163149,0.14517220756088633,0.2447069023828483,0.315230077381889,0.3940855471883591,0.47535535454850564,0.5462746481539007,0.5852628862491125,0.6269453312124948,0.689191392529434,0.7567693456684221,0.7831005215962223,0.7789921965885513,0.7599679285874901,0.7598536514344323,0.7598536514344323,0.7598536514344323,0.7592891697324555,0.7245211003902412,0.7118527884748209,0.7119122669343536,0.7285083340956735,0.7595127422679679,0.7598846587441423,0.7725529706595635,0.8083293161308642,0.8422248693862544,0.8189822987519806,0.8080942498566914,0.836492720055416,0.8564554529621136,0.8869700796494397,0.8691934527057947,0.8702505424513634,0.903474209554628,0.9039492622424001,0.9039492622424001,0.9039492622424001,0.9039405937217024,0.8892077010258861,0.8566989103572213,0.8640930021587208,0.8935464591396043,0.8675909730395839,0.8919003246151336,0.8592528277628473,0.8962274353683659,0.9033372615119175,0.867819264457121,0.8559365035908817,0.8555317682995112,0.8237169106050839,0.7846996452275059,0.7461268404772605,0.7051672618324796,0.6659450422697395,0.6639758808958982,0.6906941599015788,0.7121295787574544,0.7436892946134002,0.8005276887534558,0.8432852108680544,0.9205854468892616,0.9520588570513882,0.978459644181048,0.9999999999999991,0.9940283452750718,0.954652348745868,0.9514175431574659,0.9130331026970948,0.8319050951420488,0.7658765212372947,0.6836096728537067,0.6576182216019557,0.5705611940970012,0.4543909133972912,0.3699143548642674,0.2772503869099934,0.24223069555043342,0.29828619824496716,0.4115795812168068,0.5302266305943961,0.613845982156441,0.7270860122539604,0.8111798177650806,0.8973028323308059,0.8946634730241287,0.8576094076470175,0.8747326315859807,0.9036828772544405,0.9037574014329435,0.8768613182683174,0.8560426858753472,0.8468088890824861,0.8195657316390266,0.8552038619140907,0.8559173919730769,0.8567536398154312,0.8896334383623552,0.900036205197055,0.8511727671949396,0.8095835681969525,0.8065912214915469,0.767544148269935,0.7256907404580311,0.6850418539534768,0.6243331256399012,0.5634324269460222,0.5012286249903894,0.439939705949989,0.39471626615374245,0.31454723721581157,0.23166600832370143,0.18212921351351152,0.1308904402365938,0.05176125147275723,0.03937884808985448,0.041423565333902346,0.09992116115739869,0.16780289667015857,0.20760121772463513,0.26971382193709825,0.35824758062377526,0.4643767734841182,0.5260524700143447,0.5917457437954425,0.672876045958902,0.7181674398444589,0.7722507948258643,0.8074253738516832,0.8078887086598936,0.81845831628599,0.855232141846547,0.8490641497830742,0.810270024126682,0.80788609535586,0.803638033565842,0.7635183641442644,0.7701552763499926,0.7954254966192318,0.7610339558502472,0.7598536514344323,0.7598536514344323,0.7598548624777646,0.7628115814797942,0.8027628200130446,0.7965498591789801,0.7610912986124898,0.7598536514344323
0,1,2,3,4,5,6,7,8,9,10,11,12,13,14,15,16,17,18,19,20,21,22,23,24,25,26,27,28,29,30,31,32,33,34,35,36,37,38,39,40,41,42,43,44,45,46,47,48,49,50,51,52,53,54,55,56,57,58,59,60,61,62,63,64,65,66,67,68,69,70,71,72,73,74,75,76,77,78,79,80,81,82,83,84,85,86,87,88,89,90,91,92,93,94,95,96,97,98,99,100,101,102,103,104,105,106,107,108,109,110,111,112,113,114,115,116,117,118,119,120,121,122,123,124,125,126,127,128,129,130,131,132,133,134,135,136,137,138,139,140,141,142,143,144,145,146,147,148,149,150,151,152,153,154,155,156,157,158,159,160,161,162,163,164,165,166,167,168,169,170,171,172,173,174,175,176,177,178,179,180,181,182,183,184,185,186,187,188,189,190,191,192,193,194,195,196,197,198,199,200,201,202,203,204,205,206,207,208,209,210,211,212,213,214,215,216,217,218,219,220,221,222,223,224,225,226,227,228,229,230,231,232,233,234,235,236,237,238,239,240,241,242,243,244,245,246,247,248,249,250,251,252,253,254
